-0.0078125,-0.03125,0,-0.023438,0.015625,-0.0078125,-0.023438,-0.015625,-0.015625,0.015625,-0.015625,-0.0078125,0,-0.023438,0,0.0078125,0.0078125,0.0078125,-0.0078125,-0.015625,-0.023438,-0.015625,-0.0078125,0,-0.023438,-0.015625,0,0,0,-0.015625,-0.015625,0,-0.015625,-0.023438,-0.015625,-0.0078125,-0.023438,-0.015625,-0.015625,-0.0078125,0.015625,-0.03125,-0.015625,-0.015625,-0.015625,-0.015625,0,-0.0078125,0,-0.015625,-0.023438,0,-0.0078125,0.015625,-0.11719,-0.0078125,-0.015625,0.015625,0.03125,-0.0078125,0.03125,-0.054688,0.0078125,0.046875,0.046875,0.0078125,-0.10938,0.015625,-0.21875,0.0078125,0.14063,-0.14844,0.039063,-0.015625,0.0078125,0.023438,-0.0078125,0.0078125,-0.09375,0.015625,-0.023438,0,0.023438,-0.046875,-0.046875,0.046875,-0.015625,-0.054688,0.03125,-0.015625,-0.015625,-0.078125,0.14063,-0.10938,0.0078125,0.16406,-0.36719,0.11719,0.0078125,-0.039063,0.10938,0.17188,-0.17188,0.054688,-0.085938,-0.078125,0.085938,-0.085938,0.039063,-0.0078125,0.039063,-0.023438,-0.070313,-0.03125,-0.0078125,-0.03125,0.10156,-0.078125,-0.023438,0.054688,0.046875,-0.078125,-0.0078125,-0.039063,-0.046875,-0.023438,0,-0.023438,0.0078125,-0.0078125,0,-0.046875,0.023438,-0.03125,-0.023438,-0.015625,0.0078125,-0.0078125,-0.023438,0.023438,0.070313,-0.10156,0,-0.0078125,0.023438,0.03125,-0.03125,-0.015625,-0.039063,0
-0.023438,0,-0.023438,-0.0078125,-0.023438,0,0.0078125,-0.03125,0,-0.03125,0.015625,-0.0078125,-0.015625,-0.023438,-0.0078125,0,-0.03125,-0.015625,-0.0078125,-0.0078125,0.015625,0.0078125,0.0078125,0,-0.03125,-0.03125,0,-0.015625,-0.023438,-0.0078125,-0.0078125,-0.039063,0,0.0078125,-0.023438,0.0078125,-0.015625,-0.015625,-0.023438,-0.015625,-0.0078125,-0.015625,-0.0078125,-0.015625,0,-0.0078125,-0.039063,0.0078125,0,-0.0078125,0.10938,-0.10938,-0.0078125,-0.0078125,-0.023438,0.054688,0,0,-0.054688,0.023438,-0.0625,0.10938,-0.125,0.039063,0,-0.09375,0.070313,-0.0078125,0.054688,-0.015625,-0.023438,-0.0078125,0.023438,-0.03125,0.0078125,-0.046875,-0.015625,-0.039063,0,-0.023438,-0.023438,0.03125,-0.015625,-0.03125,-0.015625,0,-0.0078125,-0.03125,-0.03125,-0.03125,-0.0078125,-0.023438,0.023438,-0.0078125,-0.0078125,-0.11719,0.054688,-0.023438,0.054688,-0.0078125,-0.09375,0,-0.0078125,0.015625,-0.03125,-0.0078125,-0.054688,0.023438,-0.046875,-0.023438,-0.015625,0.0078125,0.015625,-0.039063,-0.023438,0.0078125,-0.023438,-0.023438,-0.0078125,0.015625,-0.0078125,-0.023438,-0.015625,0,-0.015625,0.03125,-0.023438,0,0.015625,-0.0078125,-0.039063,0,-0.0078125,-0.023438,-0.0078125,-0.0078125,-0.039063,-0.023438,0.015625,-0.039063,0.0078125,0.046875,-0.0078125,-0.023438,-0.039063,-0.023438,-0.015625,-0.0078125,-0.0078125,-0.03125
-0.023438,-0.0078125,0,-0.015625,-0.0078125,-0.0078125,-0.015625,0.0078125,-0.046875,0,-0.023438,-0.0078125,-0.023438,-0.015625,-0.0078125,0,0.0078125,0.015625,-0.039063,-0.03125,-0.0078125,-0.0078125,-0.0078125,-0.015625,0.0078125,-0.023438,0.046875,-0.03125,0.015625,-0.0078125,-0.0078125,0,0.0078125,-0.015625,-0.03125,0.0078125,-0.015625,-0.015625,-0.0078125,-0.023438,-0.023438,-0.015625,0.0078125,-0.0078125,-0.015625,0,-0.0078125,-0.03125,-0.0078125,-0.015625,0,-0.023438,0.03125,0.078125,-0.078125,-0.03125,0,-0.039063,0.015625,0,-0.015625,0.03125,-0.046875,-0.015625,-0.023438,0.023438,-0.11719,-0.03125,0.015625,0.085938,0.015625,0.015625,-0.046875,-0.039063,0.03125,-0.015625,0.046875,-0.046875,0.015625,-0.0078125,-0.046875,-0.0625,0,0,0,-0.039063,-0.09375,0.32031,-0.0078125,-0.0625,-0.35938,0.49219,-0.25781,0.070313,0.22656,-0.36719,0.015625,0.023438,-0.023438,-0.015625,-0.039063,-0.13281,0.14844,-0.09375,0.023438,0.0078125,0.0625,-0.15625,0.070313,0.03125,-0.015625,-0.039063,-0.046875,0,-0.023438,-0.054688,0.10156,-0.0625,-0.0078125,0.015625,-0.039063,-0.0625,0.023438,-0.039063,-0.03125,0.0078125,0.0625,-0.10156,0,0.0078125,-0.015625,0,0.0078125,0.0078125,-0.039063,-0.039063,0,-0.023438,-0.0078125,-0.015625,0.023438,-0.03125,-0.0078125,-0.023438,-0.023438,-0.0078125,-0.0078125,0,-0.054688,0.015625
0.0078125,-0.015625,-0.046875,-0.023438,0,-0.0078125,-0.0078125,-0.023438,-0.015625,-0.015625,0.0078125,-0.0078125,-0.015625,0.015625,-0.03125,0.0078125,0,0.0078125,0,-0.023438,-0.039063,-0.023438,-0.0078125,-0.015625,-0.03125,-0.0078125,0,-0.015625,-0.0078125,-0.046875,-0.0078125,0,0.039063,-0.015625,0.0078125,-0.015625,-0.0078125,-0.0078125,-0.015625,-0.023438,0,-0.023438,0.0078125,0.0078125,0.023438,0,-0.03125,-0.023438,-0.046875,-0.023438,-0.015625,-0.0078125,-0.054688,0.070313,-0.015625,-0.0625,0.046875,-0.078125,-0.03125,0.015625,0.0078125,-0.03125,-0.015625,0,-0.10938,0.015625,0.046875,-0.015625,-0.0625,0,-0.03125,0.0078125,0.03125,-0.039063,0,-0.0078125,0,0.0078125,-0.0078125,0,0.015625,0.015625,-0.085938,-0.039063,-0.0078125,-0.039063,-0.0078125,0.015625,-0.023438,-0.023438,-0.0078125,-0.03125,0.0078125,0.023438,0.0078125,0,-0.015625,0,-0.015625,0.023438,0.046875,0,-0.015625,-0.046875,-0.03125,0,-0.023438,-0.015625,0,-0.0078125,-0.023438,-0.015625,0.09375,-0.070313,0.023438,-0.0625,0.0078125,0.015625,0,0.0078125,-0.070313,-0.039063,0,-0.015625,-0.0078125,-0.015625,0.015625,0.0078125,-0.0625,0.0078125,-0.0078125,0,-0.015625,-0.0078125,0,-0.023438,-0.015625,-0.03125,-0.039063,0.03125,-0.03125,0,-0.03125,-0.023438,-0.023438,-0.023438,0.03125,-0.023438,-0.0078125,0
0.0078125,0.0078125,-0.03125,-0.0078125,-0.03125,-0.015625,0,-0.03125,-0.015625,0.03125,-0.0078125,-0.015625,0,-0.015625,-0.0078125,0,-0.046875,-0.023438,-0.015625,-0.015625,0,-0.015625,0,-0.015625,0.0078125,-0.03125,-0.015625,-0.0078125,0.0078125,-0.0078125,-0.015625,-0.023438,-0.015625,-0.0078125,-0.015625,-0.023438,0.0078125,0,-0.0078125,-0.0078125,-0.0078125,-0.0078125,-0.039063,0,-0.023438,-0.0078125,0.015625,-0.03125,0,-0.039063,-0.023438,0.0078125,0,0.03125,-0.03125,-0.0625,0,0,0.0625,-0.085938,0,0.039063,0.0625,-0.070313,-0.070313,-0.0078125,0.0078125,0.0078125,0.0078125,-0.039063,-0.03125,0.039063,-0.03125,0.015625,0.023438,-0.125,0.03125,-0.03125,-0.023438,0.046875,-0.0078125,-0.0625,-0.023438,0.039063,-0.039063,-0.0078125,-0.03125,0.039063,0,-0.015625,-0.015625,0,-0.0078125,-0.15625,0.078125,0.039063,-0.03125,0.023438,-0.085938,-0.046875,0.054688,-0.023438,-0.023438,0.054688,-0.03125,0.015625,-0.03125,-0.023438,-0.015625,0.054688,-0.046875,0,0,0.023438,-0.015625,0.085938,-0.15625,-0.023438,-0.03125,0.0078125,0.070313,-0.03125,-0.015625,0.015625,0,-0.039063,0,-0.046875,0.0078125,-0.039063,-0.09375,-0.03125,0.0078125,0.023438,0.015625,-0.046875,0.023438,0.0078125,-0.03125,-0.023438,-0.0078125,-0.0078125,-0.03125,0.0078125,-0.023438,-0.0078125,0.039063,-0.015625,-0.03125,-0.015625
-0.023438,0,0,-0.0078125,0,-0.015625,0,0,-0.0078125,-0.015625,-0.0078125,0,-0.03125,0,-0.015625,-0.015625,0,0.0078125,-0.015625,0,-0.039063,-0.03125,0,-0.015625,-0.023438,-0.046875,0.023438,-0.0078125,-0.015625,-0.015625,-0.015625,-0.0078125,0.0078125,-0.0078125,-0.0078125,-0.015625,-0.0078125,-0.0078125,0,-0.015625,-0.03125,0,-0.023438,-0.0078125,0.0078125,-0.0078125,0.015625,-0.070313,-0.015625,-0.023438,-0.015625,0.023438,0.09375,-0.17188,-0.039063,-0.0078125,-0.039063,0.09375,-0.023438,-0.03125,0.054688,0.054688,-0.10156,0.023438,-0.03125,0.054688,0.03125,-0.023438,0.0078125,-0.0625,-0.023438,-0.046875,-0.023438,0,-0.023438,0.0078125,-0.039063,-0.015625,-0.0078125,0.046875,-0.10938,0.09375,-0.1875,-0.14844,0.125,-0.0625,0.0625,-0.039063,-0.015625,-0.11719,0.40625,0.023438,-0.10156,-0.11719,0.0625,-0.070313,0.125,-0.24219,0.03125,0.10156,-0.15625,0.015625,0.015625,-0.14063,-0.0078125,0.14063,-0.17969,0.078125,-0.039063,0.10156,-0.10156,0,0.0625,-0.023438,0,-0.054688,0,0.015625,-0.054688,0.039063,-0.039063,0.0078125,-0.0078125,0.015625,-0.023438,0.0078125,-0.03125,0,0.0078125,0.015625,-0.03125,0,0.015625,-0.0078125,-0.0078125,0.023438,-0.015625,-0.03125,-0.015625,-0.0078125,-0.039063,-0.0078125,0.0078125,-0.015625,0.015625,0.0078125,-0.039063,0.023438,-0.015625,0.0078125
0.0078125,0,-0.023438,-0.03125,0,-0.0078125,-0.015625,-0.0078125,-0.0078125,-0.015625,-0.0078125,-0.015625,-0.03125,-0.0078125,-0.023438,-0.015625,-0.023438,0,0,-0.03125,-0.046875,0,-0.03125,0,-0.015625,0.015625,0,0,0.0078125,-0.015625,0,-0.0078125,-0.0078125,-0.03125,0,-0.0078125,-0.046875,0.0078125,-0.0078125,-0.0078125,-0.0078125,-0.023438,0,-0.0078125,-0.0078125,-0.015625,0.0078125,-0.023438,-0.023438,0.0078125,-0.0078125,0.015625,-0.015625,-0.015625,-0.023438,-0.0078125,0.054688,0.015625,-0.0078125,-0.054688,0.0078125,0.054688,0,-0.070313,-0.023438,-0.039063,-0.0078125,0.0078125,-0.0078125,-0.046875,-0.015625,0.015625,0,-0.015625,-0.078125,0.015625,-0.023438,0.0078125,-0.0078125,0,0.0078125,-0.039063,-0.03125,0.0078125,-0.0078125,-0.070313,-0.0078125,0.015625,-0.039063,0.023438,-0.0078125,-0.046875,-0.0078125,0.0078125,0.03125,-0.0078125,-0.03125,0.0078125,-0.039063,-0.023438,-0.015625,-0.015625,0.0078125,-0.0078125,-0.023438,-0.015625,-0.03125,0.039063,0.023438,-0.0625,-0.0078125,-0.078125,0.0078125,0.0078125,0.0078125,0,-0.015625,0.015625,0,0,-0.023438,0,-0.0078125,0,-0.023438,-0.015625,-0.015625,-0.015625,-0.015625,-0.03125,-0.0078125,0.0078125,0,0.0078125,0,0,-0.03125,-0.023438,-0.023438,0.0078125,0.015625,0.0078125,-0.023438,-0.0078125,-0.0078125,-0.046875,-0.03125,-0.023438,0,0.015625
-0.015625,0,-0.023438,-0.015625,-0.015625,-0.015625,-0.046875,0,0,0.0078125,0.0078125,-0.023438,0,-0.023438,-0.015625,-0.03125,-0.0078125,-0.015625,-0.023438,-0.015625,-0.0078125,-0.015625,0,-0.0078125,0,0,0.015625,-0.015625,-0.015625,-0.03125,0.0078125,-0.0078125,-0.015625,-0.015625,-0.015625,-0.0078125,-0.0078125,-0.015625,-0.03125,0.03125,-0.015625,-0.015625,-0.023438,-0.015625,-0.023438,-0.015625,0,-0.023438,-0.023438,0.0078125,-0.0078125,-0.015625,0,-0.015625,-0.0625,0,-0.03125,-0.015625,0.039063,-0.13281,-0.0078125,-0.0078125,0.03125,0.03125,0.0078125,-0.03125,-0.039063,0.015625,0,0.015625,-0.046875,0.023438,-0.039063,0.0078125,-0.054688,0.046875,0.0078125,0,-0.015625,0.015625,-0.023438,-0.046875,0.070313,0.078125,-0.046875,-0.046875,-0.039063,-0.046875,0.015625,0.054688,-0.023438,-0.054688,0.023438,-0.03125,0.0078125,-0.054688,-0.03125,-0.023438,0.015625,-0.023438,-0.03125,-0.015625,-0.0078125,-0.046875,0.0078125,0.0078125,-0.0078125,-0.0078125,-0.0078125,0,-0.015625,-0.015625,-0.0078125,-0.0078125,-0.023438,-0.015625,-0.0078125,0,-0.046875,-0.0078125,-0.015625,-0.03125,0.015625,-0.023438,-0.03125,-0.015625,-0.0078125,-0.015625,-0.015625,-0.015625,-0.023438,0.039063,0,-0.0078125,-0.015625,-0.0078125,-0.03125,-0.015625,0,-0.015625,-0.015625,-0.023438,-0.039063,-0.023438,0.0078125,-0.0078125,0.015625,-0.0078125,0.023438,0.015625
-0.0078125,-0.0078125,-0.0078125,0,0.03125,-0.023438,-0.015625,0,-0.015625,0,-0.015625,-0.015625,-0.023438,0.0078125,-0.0078125,-0.03125,0,-0.015625,-0.039063,0,-0.015625,-0.015625,-0.015625,0.0078125,-0.03125,-0.0078125,0.0078125,-0.03125,-0.0078125,-0.0078125,-0.023438,-0.015625,0,0,-0.015625,-0.023438,-0.023438,-0.0078125,-0.0078125,-0.03125,-0.015625,0.0078125,0.0078125,-0.0078125,0,-0.023438,-0.015625,-0.015625,-0.015625,-0.015625,-0.039063,-0.023438,-0.0078125,-0.0078125,0,-0.0078125,-0.0078125,-0.03125,-0.0078125,0,-0.03125,0.015625,0,0.0078125,0.0078125,-0.03125,-0.015625,-0.015625,-0.0078125,0,-0.015625,0.015625,0.0078125,-0.046875,0.0078125,-0.023438,0,0.0078125,-0.046875,0.015625,-0.0078125,-0.023438,-0.0078125,-0.0078125,-0.023438,0.015625,-0.0078125,-0.03125,-0.015625,0,-0.015625,0.0078125,-0.03125,-0.015625,0.0078125,-0.015625,-0.015625,0.0078125,0.0078125,-0.015625,-0.054688,-0.023438,0.0078125,-0.0078125,0,-0.0078125,-0.03125,0.0078125,0.015625,-0.023438,0,-0.023438,-0.015625,-0.0078125,-0.0078125,-0.015625,-0.0078125,-0.023438,0.0078125,-0.015625,0,-0.0078125,-0.046875,-0.0078125,0.023438,-0.023438,0.015625,-0.015625,-0.023438,0.0078125,-0.039063,-0.0078125,-0.0078125,-0.023438,-0.023438,-0.015625,-0.015625,-0.0078125,-0.0078125,-0.015625,0.015625,-0.023438,-0.03125,-0.0078125,-0.0078125,0,0,-0.023438,-0.015625,0
-0.023438,-0.023438,0.0078125,-0.015625,0.0078125,-0.023438,-0.015625,-0.015625,-0.039063,-0.0078125,-0.015625,-0.0078125,-0.03125,-0.015625,-0.0078125,0,-0.0078125,-0.03125,0,-0.0078125,-0.0078125,0.015625,-0.023438,0.0078125,-0.015625,-0.015625,-0.023438,-0.015625,-0.023438,-0.023438,-0.015625,-0.0078125,0.0078125,-0.03125,-0.0078125,-0.0078125,-0.0078125,0.015625,0,-0.03125,-0.023438,-0.023438,-0.039063,0.0078125,0,0,0.0078125,-0.046875,-0.0078125,0.0078125,-0.023438,-0.0078125,0,-0.015625,-0.03125,0.0078125,-0.054688,-0.015625,0.015625,-0.046875,-0.015625,0.0078125,0.015625,-0.023438,0.03125,-0.039063,-0.03125,0.19531,-0.33594,-0.0078125,-0.015625,-0.0078125,0.078125,0,-0.09375,0.14063,0.039063,0.070313,-0.28125,-0.023438,0.023438,-0.0078125,0.13281,-0.078125,-0.0078125,-0.039063,0.015625,-0.09375,0.070313,-0.039063,0.046875,-0.10156,0.11719,-0.023438,0.023438,-0.023438,0.015625,-0.039063,0.039063,-0.015625,-0.046875,-0.023438,0,-0.039063,-0.046875,0,0.0078125,-0.023438,0,-0.0078125,-0.0078125,-0.03125,-0.023438,-0.015625,-0.015625,0,-0.0078125,-0.023438,-0.015625,-0.015625,-0.0078125,-0.0078125,-0.015625,-0.015625,-0.03125,-0.015625,-0.0078125,0,0.0078125,0.0078125,-0.03125,-0.015625,-0.03125,0.0078125,0.015625,-0.0078125,-0.023438,-0.023438,-0.015625,0.0078125,-0.0078125,-0.023438,0,0,-0.023438,-0.023438,0,-0.015625,-0.0078125,0
-0.0078125,-0.0078125,-0.015625,0.015625,-0.0078125,-0.015625,0.015625,-0.0078125,-0.0078125,0,-0.03125,-0.023438,-0.015625,0.0078125,0.0078125,-0.0078125,-0.015625,-0.0078125,-0.023438,-0.039063,-0.023438,-0.023438,0,0,0,-0.03125,-0.015625,-0.03125,0.015625,-0.0078125,-0.03125,0.0078125,-0.015625,-0.03125,0.0078125,0,-0.015625,0,-0.023438,0.023438,-0.039063,0,-0.0078125,-0.0078125,-0.03125,-0.03125,-0.0078125,-0.03125,0.023438,0.023438,0.015625,-0.023438,-0.039063,-0.0078125,-0.023438,0,-0.023438,0,-0.054688,-0.023438,-0.0078125,-0.03125,0.054688,-0.0078125,-0.09375,0.015625,-0.03125,0.039063,0.039063,-0.039063,-0.023438,-0.046875,-0.023438,0.023438,0.0078125,-0.0078125,0.0078125,0,-0.046875,0.03125,0,0.023438,-0.03125,-0.03125,-0.023438,-0.046875,-0.023438,-0.0078125,-0.0078125,-0.015625,0.015625,0,0.0078125,-0.0078125,0,-0.0078125,-0.0078125,-0.039063,0.015625,-0.023438,0,0.015625,-0.039063,-0.023438,-0.015625,-0.015625,0,-0.0078125,-0.015625,-0.015625,-0.015625,-0.015625,0.0078125,-0.023438,-0.023438,-0.015625,-0.0078125,-0.0078125,-0.0078125,-0.0078125,-0.0078125,0,0.0078125,-0.14844,-0.0625,-0.0078125,-0.023438,0.078125,0.03125,-0.03125,0.023438,0,-0.023438,-0.015625,0.015625,-0.039063,-0.015625,0.0078125,-0.023438,-0.03125,0,-0.023438,-0.015625,0.023438,-0.0078125,-0.015625,-0.0078125,-0.0078125,0,-0.015625
-0.039063,0.0078125,0.0078125,-0.0078125,0.015625,-0.023438,-0.0078125,-0.0078125,-0.0078125,-0.039063,-0.015625,-0.0078125,0,-0.03125,-0.015625,-0.015625,-0.015625,0.015625,-0.0078125,0,-0.023438,-0.023438,-0.0078125,-0.015625,0.0078125,-0.0078125,-0.03125,-0.015625,-0.0078125,0,-0.023438,0.0078125,-0.046875,-0.015625,-0.023438,0,0.0078125,-0.015625,-0.015625,-0.0078125,-0.023438,-0.023438,-0.0078125,0,-0.0078125,0.023438,-0.054688,-0.054688,-0.0078125,-0.015625,0.039063,-0.046875,0.0078125,0.0078125,-0.0078125,-0.0078125,-0.023438,-0.0078125,-0.03125,0.015625,0.015625,-0.03125,0.015625,0.046875,-0.015625,-0.023438,0.015625,-0.023438,-0.015625,0,-0.039063,0.015625,-0.0078125,-0.039063,-0.023438,-0.039063,0.023438,0.0625,-0.03125,-0.070313,-0.039063,-0.0078125,0.046875,0.085938,-0.085938,-0.085938,-0.0078125,-0.023438,0.0625,0.015625,-0.015625,-0.015625,0,-0.023438,0.023438,-0.0078125,0,-0.023438,-0.03125,-0.03125,-0.039063,0.015625,0.0078125,-0.03125,-0.015625,0,-0.023438,-0.03125,0,-0.0078125,-0.0078125,0.0078125,-0.015625,-0.0078125,-0.015625,-0.0078125,-0.015625,0.039063,-0.14063,-0.046875,0.039063,-0.0625,0.0625,0.10938,-0.125,0.21094,-0.078125,-0.054688,-0.0078125,-0.070313,0.023438,-0.0625,0.039063,-0.054688,-0.03125,0.0078125,0.0078125,-0.046875,0,-0.015625,-0.023438,-0.046875,0.015625,-0.023438,-0.015625,-0.015625,-0.015625,0,0.0078125,-0.023438
0,-0.0078125,-0.0078125,-0.0078125,0.0078125,-0.023438,-0.0078125,-0.015625,-0.015625,-0.015625,-0.023438,0.0078125,-0.0078125,0,0.0078125,-0.0078125,-0.0078125,0,-0.039063,-0.015625,-0.015625,-0.015625,-0.023438,-0.015625,0,-0.0078125,0.0078125,-0.015625,0,-0.0078125,0.0078125,-0.015625,-0.023438,-0.023438,-0.039063,0,-0.015625,0.0078125,-0.03125,-0.015625,-0.0078125,-0.03125,-0.0078125,0.03125,-0.023438,0,0,-0.03125,-0.015625,-0.015625,-0.015625,0,-0.0078125,-0.039063,0.0078125,-0.0078125,0.015625,-0.015625,-0.03125,-0.0078125,-0.0078125,0.0078125,-0.015625,-0.046875,-0.03125,0.046875,0.023438,-0.039063,0.0078125,-0.023438,-0.03125,0.046875,-0.054688,-0.0078125,0.015625,-0.023438,0.0078125,0.085938,-0.17969,0.0078125,0,0.0078125,0.015625,0.03125,-0.046875,-0.10156,0.046875,-0.023438,0.054688,0.0078125,-0.0078125,-0.015625,-0.023438,-0.023438,-0.03125,-0.0078125,-0.0078125,-0.023438,0.03125,-0.039063,-0.03125,0,0.015625,-0.046875,-0.023438,-0.015625,-0.0078125,-0.015625,-0.0078125,0,-0.0078125,-0.015625,0.023438,-0.039063,0,0.0078125,-0.015625,-0.015625,0.0078125,-0.023438,-0.015625,-0.03125,-0.039063,0,-0.0078125,-0.023438,-0.015625,-0.0078125,-0.0078125,0.0078125,-0.0078125,-0.023438,0,0,-0.023438,0,-0.0078125,-0.0078125,0,-0.023438,-0.0078125,0.0078125,0,-0.03125,-0.023438,-0.015625,0.0078125,0.0078125,0,-0.015625
0,0.0078125,-0.023438,0.0078125,-0.015625,0,-0.023438,-0.015625,-0.03125,-0.0078125,0.0078125,-0.039063,0.0078125,-0.015625,0.0078125,0,-0.023438,0,-0.023438,-0.0078125,-0.0078125,0.0078125,-0.039063,0,-0.023438,-0.039063,0.0078125,-0.023438,-0.0078125,-0.015625,0.0078125,-0.023438,0,0,-0.023438,-0.0078125,0.023438,-0.0078125,-0.015625,0.015625,-0.023438,-0.0078125,-0.03125,-0.0078125,-0.03125,-0.0078125,0.0078125,-0.015625,-0.0078125,-0.0078125,-0.0078125,-0.0078125,-0.0078125,-0.03125,-0.039063,-0.0078125,-0.0078125,0.03125,-0.023438,-0.015625,-0.0078125,-0.015625,0.015625,-0.039063,-0.015625,-0.054688,0,-0.015625,-0.015625,0.015625,0.015625,-0.015625,0.03125,-0.085938,0.0625,-0.13281,-0.0078125,0.0078125,-0.0078125,0,-0.023438,0,-0.03125,0.03125,0.0078125,0.023438,-0.015625,0.0078125,-0.046875,0.03125,-0.0078125,0,0,-0.03125,-0.078125,0,-0.015625,-0.0078125,0,0.039063,-0.0078125,-0.10156,0,-0.0078125,0.0078125,0.03125,-0.015625,-0.023438,-0.046875,0,-0.023438,0,-0.0078125,0,-0.015625,0,-0.015625,-0.015625,0,-0.015625,-0.0078125,0.0078125,0,0,-0.0078125,-0.0078125,-0.039063,0,0.0078125,-0.015625,-0.023438,0,-0.0078125,0,0,-0.0078125,-0.039063,0,-0.0078125,-0.0078125,0.015625,-0.03125,-0.015625,0,0,-0.0078125,0,-0.015625,-0.0078125,0
-0.023438,0,-0.03125,-0.015625,0,-0.015625,-0.015625,-0.0078125,-0.039063,-0.015625,0.0078125,-0.015625,-0.015625,0,-0.0078125,0,-0.0078125,0.015625,-0.0078125,-0.015625,0,-0.0078125,-0.023438,-0.0078125,-0.015625,-0.023438,-0.015625,0,-0.0078125,-0.039063,-0.03125,-0.015625,-0.015625,-0.015625,-0.015625,-0.03125,0,0,0.0078125,-0.015625,-0.0078125,0,-0.015625,-0.0078125,-0.015625,0,-0.023438,-0.0078125,-0.015625,0.015625,-0.0078125,0,0,-0.054688,-0.0078125,-0.0078125,0,-0.023438,0,0.015625,-0.023438,0.0078125,-0.023438,-0.03125,-0.015625,0,0.0078125,0,-0.03125,0.03125,-0.015625,0,-0.015625,0.0078125,-0.046875,0,-0.0078125,-0.015625,-0.0078125,-0.015625,-0.023438,-0.039063,0.015625,-0.023438,0.0078125,-0.023438,-0.023438,-0.015625,0,-0.0078125,0,0.015625,-0.015625,-0.015625,0.015625,-0.015625,0,-0.023438,-0.015625,-0.046875,-0.015625,-0.015625,0,0.0078125,0.0078125,0.0078125,-0.015625,-0.0078125,-0.03125,-0.03125,0,-0.015625,-0.0078125,-0.0078125,-0.015625,-0.023438,-0.0078125,0,-0.03125,-0.0078125,0,-0.023438,0,0,0.023438,-0.039063,-0.039063,-0.0078125,0,0.023438,-0.023438,-0.015625,-0.023438,0,-0.015625,0.0078125,-0.015625,-0.015625,0,-0.023438,0,0,-0.015625,-0.023438,-0.0078125,0.0078125,-0.023438,0,-0.0078125,-0.0078125
-0.0078125,-0.015625,-0.015625,-0.0078125,-0.0078125,-0.0078125,-0.0078125,0,-0.015625,0.0078125,-0.0078125,-0.015625,-0.015625,-0.039063,-0.0078125,-0.039063,0.015625,0.0078125,-0.0078125,0.0078125,-0.03125,-0.0078125,-0.023438,-0.023438,-0.0078125,-0.023438,0,-0.015625,-0.0078125,0.0078125,-0.0078125,-0.015625,0.0078125,-0.03125,-0.0078125,0.0078125,-0.023438,-0.03125,-0.0078125,-0.023438,-0.0078125,0.015625,-0.015625,-0.015625,-0.015625,-0.015625,-0.015625,-0.0078125,0,-0.023438,-0.0078125,-0.0078125,-0.015625,0.023438,-0.015625,-0.0078125,-0.039063,-0.015625,-0.015625,0.015625,-0.023438,0.0078125,-0.0625,0,0.015625,-0.023438,0.023438,-0.015625,-0.023438,-0.015625,0.015625,-0.03125,0,-0.023438,-0.015625,-0.015625,0.03125,-0.046875,0.03125,-0.0078125,-0.039063,-0.023438,-0.023438,-0.023438,-0.015625,-0.0078125,-0.023438,-0.023438,-0.0078125,0,-0.0078125,-0.0078125,0.0078125,-0.023438,-0.0078125,-0.0078125,-0.0078125,-0.015625,-0.023438,-0.0078125,-0.03125,0,0.0078125,-0.015625,-0.0078125,0,0,0,-0.015625,-0.0078125,0,-0.015625,-0.015625,-0.0078125,-0.023438,-0.023438,0.0078125,0.0078125,-0.039063,-0.0078125,-0.023438,-0.039063,0,0.039063,-0.046875,0.015625,-0.015625,-0.015625,-0.023438,-0.023438,0,-0.015625,-0.0078125,-0.015625,-0.0078125,0.0078125,-0.0078125,-0.015625,-0.015625,-0.03125,0,0,0,-0.03125,-0.015625,-0.015625,-0.0078125,0,-0.015625,-0.023438
-0.015625,0,0,0,-0.015625,0,-0.0078125,0,0,-0.023438,-0.015625,-0.015625,-0.023438,-0.0078125,-0.015625,-0.023438,-0.0078125,0.0078125,0.0078125,0.0078125,0.0078125,-0.015625,-0.015625,-0.0078125,-0.015625,-0.0078125,-0.015625,0,-0.0078125,-0.015625,-0.023438,-0.015625,0,-0.0078125,0,0,-0.0078125,-0.0078125,-0.015625,0,0,-0.015625,-0.0078125,0.015625,-0.039063,0,-0.0078125,0.0078125,-0.03125,0,-0.0078125,-0.015625,-0.03125,-0.023438,0.015625,-0.0078125,0.0078125,-0.0078125,-0.015625,-0.054688,0.0078125,-0.023438,-0.0078125,0.015625,-0.015625,0.046875,-0.10156,0,-0.015625,0,0.03125,-0.015625,0.0078125,-0.039063,0.015625,-0.054688,0.023438,-0.046875,0.039063,-0.078125,-0.03125,0.015625,-0.015625,0.023438,-0.0078125,-0.015625,-0.0078125,0.023438,-0.023438,0,-0.023438,-0.023438,-0.03125,0,-0.023438,0,-0.0078125,-0.039063,-0.0078125,0.015625,-0.023438,-0.015625,-0.015625,-0.023438,-0.015625,0,0.0078125,-0.0078125,-0.023438,0,-0.03125,-0.0078125,0.0078125,-0.015625,-0.0078125,-0.0078125,-0.015625,-0.0078125,-0.0078125,-0.046875,0.0078125,0.03125,-0.023438,0,-0.023438,-0.03125,0.015625,0.0078125,-0.023438,-0.0078125,-0.0078125,-0.0078125,-0.03125,-0.023438,-0.015625,-0.0078125,0.023438,-0.015625,-0.015625,-0.023438,0.0078125,-0.0078125,-0.023438,0,-0.0078125,-0.015625,-0.0078125,-0.015625,-0.015625,-0.023438
-0.03125,0,0,-0.015625,-0.0078125,-0.023438,-0.03125,0,0.0078125,0,-0.0078125,-0.023438,0.015625,-0.0078125,-0.0078125,-0.0078125,-0.023438,-0.015625,-0.023438,-0.023438,0,-0.0078125,-0.023438,-0.015625,-0.039063,0,-0.039063,0.015625,0.0078125,-0.015625,-0.0078125,-0.03125,-0.0078125,-0.015625,-0.015625,-0.015625,-0.0078125,-0.023438,0,-0.023438,-0.015625,-0.0078125,-0.023438,0.0078125,-0.023438,-0.015625,0,-0.015625,-0.015625,-0.046875,0,-0.0078125,0.015625,0,-0.015625,0,0.023438,-0.085938,-0.0078125,-0.046875,-0.015625,-0.0078125,0,0.023438,0.0078125,-0.023438,-0.078125,0.015625,-0.03125,0,0.03125,-0.0078125,-0.054688,0,0.015625,-0.015625,-0.0078125,0.015625,-0.015625,-0.039063,-0.039063,-0.0078125,0.015625,-0.039063,-0.015625,-0.0078125,-0.0078125,0.023438,-0.015625,0,-0.023438,0.015625,-0.015625,0.015625,-0.0078125,-0.023438,-0.03125,-0.023438,0.023438,0,0.0078125,-0.0078125,-0.023438,-0.015625,0,0,-0.03125,-0.023438,-0.0078125,-0.0078125,-0.0078125,-0.03125,0.0078125,0.0078125,-0.0078125,0.0078125,0.023438,-0.015625,-0.015625,-0.023438,-0.03125,-0.0078125,-0.0078125,-0.015625,-0.015625,0,0.0078125,-0.015625,0,0.015625,-0.0078125,0,0,-0.039063,-0.03125,-0.0078125,-0.015625,0.0078125,-0.03125,-0.023438,0,-0.015625,0.0078125,0,-0.015625,0,-0.03125,0,-0.023438,-0.0078125
-0.0078125,0,0.0078125,-0.039063,-0.023438,-0.015625,-0.0078125,-0.0078125,-0.0078125,-0.015625,-0.0078125,-0.023438,-0.015625,-0.03125,0,-0.0078125,-0.015625,-0.0078125,-0.015625,-0.015625,-0.0078125,-0.015625,-0.03125,-0.0078125,-0.03125,0,-0.015625,-0.015625,-0.015625,0,0,-0.023438,-0.0078125,-0.0078125,0,0,-0.0078125,-0.0078125,-0.039063,-0.015625,-0.0078125,-0.0078125,0,-0.0078125,-0.015625,0,-0.023438,0.015625,-0.015625,0.015625,0.023438,-0.039063,0,-0.046875,0.015625,0.0078125,-0.015625,0,-0.023438,-0.023438,-0.0078125,-0.015625,0,0.015625,-0.039063,0.03125,0.015625,0.015625,-0.046875,0,-0.085938,0.03125,0.03125,-0.054688,0.023438,-0.054688,0.023438,-0.0078125,-0.023438,-0.0078125,0,-0.015625,-0.023438,-0.015625,-0.0078125,-0.0078125,-0.015625,-0.03125,0.0078125,-0.023438,0,-0.015625,-0.03125,-0.0078125,0,-0.039063,-0.015625,-0.015625,0,-0.03125,-0.023438,-0.015625,0,0,-0.015625,0.015625,-0.023438,0,0.023438,-0.023438,-0.023438,-0.0078125,-0.0078125,-0.023438,0,-0.0078125,-0.023438,-0.0078125,-0.023438,0,-0.023438,0,-0.0078125,-0.015625,0.0078125,0.023438,-0.023438,0,-0.015625,0,0.015625,-0.0078125,-0.015625,-0.015625,-0.023438,-0.03125,0,-0.015625,0,-0.015625,-0.03125,-0.03125,0,-0.0078125,0.023438,-0.015625,-0.0078125,-0.015625,-0.015625,0
-0.015625,0,-0.0078125,-0.015625,-0.015625,-0.0078125,0,-0.015625,-0.0078125,0,-0.0078125,-0.0078125,0,-0.015625,-0.023438,-0.015625,-0.023438,-0.023438,-0.03125,0,-0.0078125,-0.0078125,-0.0078125,-0.015625,0.0078125,0.0078125,-0.03125,-0.03125,0,-0.015625,-0.0078125,-0.0078125,-0.0078125,0.0078125,0.023438,-0.023438,-0.039063,-0.023438,-0.0078125,0.0078125,0.015625,-0.015625,-0.015625,0.0078125,-0.023438,-0.015625,-0.015625,-0.015625,-0.015625,0,-0.0078125,-0.015625,-0.023438,-0.0078125,-0.015625,-0.023438,0.023438,-0.0078125,0.0078125,-0.03125,-0.023438,-0.03125,0,-0.0078125,0.0078125,0,-0.03125,0.015625,-0.023438,0.023438,0.0078125,-0.023438,0,-0.023438,-0.015625,0.0078125,-0.046875,-0.0078125,-0.03125,0.0078125,-0.015625,-0.0078125,-0.0078125,-0.0078125,0,0,0,-0.015625,-0.015625,-0.023438,-0.039063,-0.0078125,-0.023438,-0.0078125,0.023438,-0.039063,-0.015625,-0.023438,-0.0078125,0.0078125,-0.0078125,0,-0.023438,0,-0.023438,0,-0.015625,-0.023438,-0.0078125,-0.023438,-0.0078125,-0.039063,0,0.0078125,-0.0078125,0,-0.015625,-0.0078125,-0.0078125,0.0078125,-0.015625,-0.0078125,0,-0.023438,0,-0.0078125,-0.023438,0,-0.0078125,-0.023438,0,-0.0078125,0,-0.015625,-0.03125,-0.015625,0.0078125,-0.023438,0,0,-0.015625,-0.015625,-0.0078125,-0.03125,0.0078125,-0.015625,-0.015625,-0.0078125,-0.03125,-0.023438
-0.015625,-0.023438,0.0078125,-0.0078125,0,0,-0.0078125,-0.0078125,-0.023438,-0.023438,0.0078125,0,0,-0.015625,-0.023438,-0.015625,0,0,-0.023438,-0.015625,-0.03125,-0.015625,0,0,0.0078125,-0.0078125,-0.0078125,-0.023438,-0.0078125,0.015625,-0.023438,-0.0078125,0.0078125,-0.015625,0,-0.015625,-0.015625,-0.015625,-0.046875,-0.015625,-0.0078125,-0.023438,0.03125,-0.015625,-0.046875,-0.015625,-0.03125,0.0078125,0.0078125,-0.015625,0,-0.023438,-0.046875,0,-0.023438,0.023438,0.0078125,0,0,-0.0078125,-0.0078125,-0.015625,-0.0078125,-0.039063,0.015625,-0.015625,0,-0.0078125,-0.039063,0,-0.03125,-0.03125,-0.023438,0.023438,-0.085938,-0.015625,0.023438,-0.039063,0.023438,-0.0078125,0.023438,-0.015625,0.023438,-0.015625,-0.015625,0,-0.070313,-0.023438,0,0.015625,0.023438,-0.015625,0,-0.0078125,0.0078125,0.015625,-0.015625,-0.015625,0.0078125,0,-0.03125,-0.0078125,-0.0078125,-0.023438,-0.0078125,-0.0078125,-0.023438,0.0078125,-0.023438,-0.0078125,-0.0078125,0.0078125,-0.046875,-0.0078125,-0.023438,-0.0078125,0.0078125,-0.023438,-0.0078125,-0.0078125,-0.015625,0.046875,0,0,-0.03125,0.023438,0.0625,-0.023438,0.070313,-0.09375,-0.015625,-0.0078125,-0.046875,0,-0.039063,-0.0078125,0,-0.023438,0.0078125,0,-0.0078125,-0.023438,-0.039063,0,-0.039063,0,-0.03125,-0.015625,-0.0078125,0.0078125
-0.0078125,-0.015625,-0.015625,-0.023438,-0.015625,0,-0.0078125,-0.0078125,-0.023438,-0.015625,-0.039063,0.0078125,-0.015625,-0.015625,0,-0.0078125,-0.023438,-0.023438,-0.023438,-0.0078125,-0.015625,0,0,-0.03125,0.015625,-0.0078125,-0.023438,-0.015625,-0.023438,0,-0.03125,-0.023438,0.0078125,-0.0078125,0.0078125,-0.0078125,-0.015625,-0.015625,-0.015625,-0.070313,0,-0.0078125,-0.023438,0.023438,-0.054688,-0.0078125,0.0078125,-0.0078125,0.023438,-0.039063,-0.015625,-0.0078125,0,-0.015625,-0.03125,0,-0.0078125,0,-0.0078125,-0.0078125,-0.03125,-0.0078125,0.0078125,-0.0078125,0,0,-0.023438,-0.015625,-0.039063,-0.03125,0.023438,-0.0078125,-0.0078125,0,-0.0078125,0.015625,0.0078125,0,0.015625,-0.0078125,-0.015625,-0.0078125,-0.023438,0,-0.0078125,-0.0078125,-0.015625,-0.023438,0,0,0,-0.015625,-0.023438,-0.023438,-0.023438,0,0.015625,0,-0.0078125,-0.015625,-0.03125,-0.015625,0,0,0,-0.0078125,-0.015625,-0.03125,-0.039063,0.023438,-0.015625,-0.0078125,0.046875,-0.039063,0.023438,0.023438,0,0.11719,-0.13281,0.023438,-0.0078125,-0.03125,-0.023438,0.039063,-0.046875,-0.0625,0.03125,-0.0625,-0.015625,-0.0078125,0.015625,0,-0.023438,0.10156,-0.29688,-0.03125,0.0078125,-0.0078125,0.070313,-0.0078125,-0.054688,-0.03125,0.054688,-0.0625,0.023438,-0.0625,0.023438,0.0078125,-0.0078125,-0.03125
0,-0.0078125,-0.015625,-0.023438,-0.023438,-0.023438,0,-0.0078125,-0.015625,-0.0078125,-0.039063,0.0078125,-0.023438,-0.03125,0.0078125,0.015625,0,-0.0078125,-0.039063,-0.0078125,0.0078125,0,-0.015625,-0.03125,-0.03125,-0.023438,0.0078125,-0.03125,-0.015625,-0.0078125,-0.03125,-0.03125,-0.0078125,0,0,0.039063,-0.039063,-0.0078125,-0.03125,-0.0078125,-0.023438,-0.023438,-0.0078125,0.0078125,0.0078125,-0.039063,0.0078125,-0.0078125,0,0,0.0078125,-0.015625,-0.039063,-0.03125,-0.0078125,-0.015625,-0.0078125,-0.0078125,0.0078125,0.023438,-0.023438,0,0,0,0.054688,-0.03125,0.015625,-0.070313,-0.023438,0.015625,-0.023438,-0.0078125,0.015625,-0.0078125,-0.0625,0.015625,-0.015625,0.015625,-0.023438,0,0.03125,-0.0078125,-0.0078125,-0.023438,-0.0078125,-0.023438,-0.023438,-0.015625,-0.015625,-0.015625,-0.03125,0,-0.03125,0,0,-0.03125,-0.03125,0.054688,0.14063,0.070313,-0.09375,-0.125,0.085938,0.09375,0.0625,-0.054688,-0.28125,0.14844,0.0078125,-0.015625,-0.078125,0.03125,-0.30469,0.015625,-0.023438,-0.070313,0.10156,0,-0.078125,0.0078125,0.0078125,-0.0078125,0.039063,-0.09375,0.046875,0.023438,0.015625,-0.09375,0.023438,-0.0078125,0.015625,-0.0625,0,0.0078125,0.039063,-0.0625,-0.0078125,0.015625,0.0078125,-0.070313,0.023438,-0.023438,-0.0078125,0.078125,-0.0078125,0.023438,-0.023438,0.015625,0.015625,-0.023438
-0.03125,-0.015625,-0.015625,-0.015625,-0.0078125,0,-0.015625,-0.0078125,-0.015625,-0.015625,-0.0078125,-0.015625,-0.0078125,-0.023438,-0.015625,-0.015625,-0.015625,-0.023438,-0.015625,-0.015625,-0.0078125,0.015625,-0.039063,0.0078125,0,-0.023438,0.0078125,-0.023438,0,-0.015625,-0.0078125,-0.015625,-0.015625,-0.015625,-0.023438,0.0078125,0,0,-0.03125,-0.015625,-0.015625,-0.023438,0,-0.023438,0,-0.046875,0.0078125,0.015625,-0.03125,0.03125,0,-0.070313,0.015625,0,0,-0.0078125,-0.03125,-0.015625,-0.03125,0.046875,-0.015625,0,0.0078125,-0.023438,-0.0078125,0,0,-0.023438,0.023438,-0.015625,-0.015625,0.0078125,-0.023438,0.023438,-0.039063,0,-0.015625,-0.0078125,-0.0078125,-0.015625,0.03125,0,0.023438,-0.0625,0.0078125,-0.015625,-0.023438,0.015625,-0.015625,-0.03125,-0.023438,0.023438,-0.03125,0,-0.015625,-0.015625,-0.023438,-0.015625,0.03125,-0.015625,-0.039063,-0.015625,-0.015625,-0.015625,-0.015625,0.1875,-0.054688,0,-0.039063,-0.0078125,-0.0078125,-0.015625,0.015625,-0.09375,0.0078125,-0.03125,-0.078125,-0.03125,-0.03125,0.14063,-0.23438,-0.023438,0.015625,0.015625,0.078125,-0.054688,-0.023438,-0.039063,0.03125,-0.039063,0.015625,-0.046875,0.0078125,0.023438,0,-0.039063,-0.015625,-0.015625,0,-0.039063,0.054688,-0.023438,-0.015625,-0.0078125,0.015625,-0.023438,-0.015625,-0.023438,0.0078125,-0.0078125
0.0078125,-0.09375,0.0078125,-0.023438,0.023438,0.0078125,-0.015625,-0.0078125,0.023438,0.0078125,0,-0.015625,-0.039063,0.0078125,0.0078125,0,-0.03125,-0.0078125,0,-0.039063,-0.023438,0.0078125,-0.0078125,0,-0.0078125,-0.0078125,-0.015625,-0.015625,0,0,0,-0.015625,-0.039063,0,0.0078125,0.015625,0,-0.023438,-0.03125,-0.03125,-0.023438,0,0.023438,-0.039063,-0.0625,0.0078125,-0.03125,0.023438,0.0078125,-0.015625,-0.023438,0.015625,0.0078125,-0.023438,-0.015625,-0.023438,-0.0078125,-0.03125,-0.0078125,-0.0078125,0.0078125,0.015625,-0.070313,0,0,0.023438,-0.0078125,-0.046875,-0.015625,-0.015625,-0.023438,0.0078125,-0.0078125,-0.03125,0.015625,-0.03125,-0.015625,0.023438,-0.0078125,-0.0078125,-0.0078125,-0.03125,0,-0.0078125,0,0,0.0078125,-0.015625,-0.015625,-0.015625,0.0078125,-0.046875,0.015625,-0.023438,-0.023438,0,-0.03125,-0.0078125,-0.0078125,-0.015625,-0.0078125,-0.023438,-0.015625,-0.0078125,-0.023438,-0.0078125,0.015625,0,-0.015625,-0.046875,-0.023438,0,-0.03125,0.125,-0.29688,-0.0078125,0,-0.023438,0.070313,0.015625,-0.023438,-0.046875,0.046875,-0.039063,0.03125,-0.0078125,0.023438,-0.015625,-0.023438,0,-0.0625,0.1875,-0.17969,-0.023438,0.039063,0.054688,0.039063,-0.023438,-0.0078125,-0.070313,-0.0078125,-0.046875,0.054688,-0.054688,-0.03125,-0.015625,-0.0078125,-0.023438,-0.0078125,-0.03125
-0.0078125,-0.0078125,-0.015625,0.0078125,0.015625,-0.023438,-0.015625,-0.015625,-0.015625,0.0078125,-0.0078125,-0.015625,-0.0078125,-0.015625,0.0078125,-0.015625,-0.0078125,-0.015625,0.015625,-0.015625,0,-0.023438,0,-0.023438,-0.015625,0.023438,-0.015625,0,-0.023438,-0.03125,-0.0078125,0,-0.0078125,-0.0078125,-0.015625,0.0078125,-0.039063,0.0078125,0,-0.023438,-0.015625,-0.015625,-0.0078125,0,-0.03125,-0.0078125,-0.015625,-0.015625,-0.023438,-0.03125,-0.070313,-0.03125,0.015625,0.023438,-0.0078125,-0.015625,0,-0.0078125,-0.0078125,-0.015625,0.015625,-0.015625,-0.023438,-0.015625,-0.039063,0,0,-0.0078125,-0.039063,-0.03125,0.015625,0.0078125,-0.0078125,-0.023438,0.015625,-0.085938,0.03125,-0.023438,0.0078125,0.015625,-0.0078125,-0.0078125,-0.015625,0.0078125,-0.015625,0.023438,-0.023438,0.0078125,0,-0.023438,-0.03125,-0.015625,0,-0.03125,-0.03125,0,-0.0078125,-0.0078125,-0.03125,-0.015625,-0.0078125,-0.015625,0.0078125,0.0078125,-0.023438,-0.0078125,-0.0078125,-0.015625,0.0078125,0,-0.039063,0,-0.039063,-0.0078125,0.015625,0.023438,-0.10156,0.0078125,-0.0078125,-0.039063,0.046875,-0.023438,-0.015625,0.054688,0,-0.023438,0.023438,-0.023438,-0.03125,-0.023438,-0.070313,0.015625,-0.015625,0.03125,-0.046875,0.15625,-0.23438,-0.0078125,0,-0.054688,0.10156,0,-0.046875,-0.039063,0.039063,-0.046875,0.03125,-0.046875,0.03125,0
0,-0.015625,-0.015625,-0.0078125,0.0078125,0.0078125,0,-0.046875,-0.015625,-0.03125,-0.015625,0,-0.023438,-0.023438,-0.015625,0,-0.015625,-0.0078125,-0.0078125,-0.0078125,-0.015625,-0.015625,-0.015625,-0.023438,0.0078125,0,0,0,-0.039063,-0.023438,-0.015625,0,-0.0078125,-0.0078125,-0.0078125,0,-0.015625,-0.0078125,-0.0078125,-0.023438,0.0078125,0,0.015625,0,-0.023438,0,-0.023438,-0.0078125,-0.015625,-0.015625,0.039063,-0.085938,0.0078125,0,0,0.03125,-0.0078125,-0.046875,-0.039063,0.125,-0.3125,0,-0.0078125,-0.015625,0.085938,-0.03125,-0.0625,-0.023438,0.039063,-0.03125,0.039063,-0.03125,0.023438,0.023438,-0.03125,-0.0078125,-0.023438,0.023438,-0.0078125,-0.039063,0.015625,-0.023438,-0.015625,-0.015625,0.039063,0,-0.023438,-0.039063,0.023438,-0.023438,-0.015625,-0.0078125,0.015625,-0.0078125,-0.0078125,-0.03125,-0.023438,0.0078125,-0.0078125,-0.0078125,0,-0.015625,-0.03125,0.046875,-0.25781,-0.0078125,0.015625,0.03125,0.0078125,0.015625,-0.054688,-0.039063,0.09375,-0.0078125,0.023438,-0.023438,0.0078125,-0.0625,-0.0078125,-0.039063,-0.03125,0.023438,0,-0.046875,0.039063,-0.0078125,0.054688,-0.054688,0.070313,-0.023438,-0.054688,0.054688,-0.03125,-0.0078125,0,-0.023438,-0.023438,-0.03125,0.0078125,-0.015625,-0.015625,0.03125,-0.023438,-0.023438,0,-0.023438,-0.039063,-0.03125,0.015625,0
-0.015625,0.0078125,-0.0078125,-0.0078125,0,0,-0.023438,0,-0.03125,-0.0078125,0,-0.023438,-0.015625,0.0078125,0.0078125,-0.015625,0.0078125,-0.015625,0.0078125,-0.0625,0,-0.03125,-0.015625,0.023438,-0.015625,-0.015625,-0.03125,-0.015625,0.0078125,0.015625,0,-0.015625,-0.0078125,-0.03125,0,-0.046875,-0.023438,-0.015625,0.0078125,0.03125,-0.0078125,-0.0078125,-0.0625,-0.0078125,0,0.03125,0,-0.015625,0,-0.054688,0,-0.015625,0.015625,-0.015625,0.015625,0.0078125,-0.023438,0,0,0.015625,-0.0078125,-0.046875,-0.015625,-0.046875,0,-0.015625,-0.015625,0,0.015625,0.0078125,0.015625,-0.015625,-0.039063,0.015625,-0.03125,-0.0078125,-0.015625,0,-0.015625,0,-0.015625,0,-0.03125,0.0078125,-0.0078125,0,0.0078125,-0.023438,-0.039063,-0.03125,-0.015625,-0.015625,-0.0078125,-0.015625,-0.0078125,0.0078125,0,-0.0078125,0.0078125,0.0078125,-0.015625,-0.015625,-0.023438,-0.039063,0.015625,-0.0078125,-0.0078125,-0.0078125,-0.015625,-0.015625,0.0078125,-0.03125,-0.03125,0.14063,-0.023438,-0.085938,0.023438,0.0078125,-0.015625,0.015625,0.015625,-0.070313,-0.0078125,-0.015625,-0.03125,-0.023438,-0.03125,0.046875,0,-0.03125,0,-0.015625,-0.0078125,-0.03125,0,0.015625,-0.015625,0,-0.0078125,0,0.0078125,-0.046875,-0.023438,-0.03125,-0.023438,0,-0.0078125,0.0078125,-0.039063,0.070313
0,0.0078125,-0.0078125,0,-0.023438,0,-0.0078125,-0.023438,-0.023438,0.0078125,-0.039063,0,-0.0078125,-0.015625,0.015625,-0.015625,-0.0078125,-0.0078125,-0.015625,-0.015625,0.0078125,-0.03125,0,0.015625,-0.0078125,-0.015625,0,-0.023438,0.0078125,-0.0078125,-0.015625,-0.015625,0,0,0.0078125,-0.054688,0.015625,-0.054688,-0.015625,0.0078125,0,-0.015625,-0.0078125,0,-0.039063,0,-0.0078125,-0.0078125,-0.023438,-0.0078125,-0.03125,-0.023438,-0.015625,0.03125,-0.0078125,-0.046875,0.015625,-0.0078125,0.023438,0.015625,-0.039063,-0.0078125,-0.0078125,-0.039063,-0.0078125,-0.015625,-0.039063,0.03125,0,-0.023438,-0.0078125,0.0078125,-0.015625,-0.0625,-0.046875,-0.023438,-0.0078125,0,0.0078125,0.0078125,-0.0625,0.023438,-0.023438,-0.0078125,0.039063,0,-0.015625,-0.0078125,-0.039063,0,0,-0.070313,0,0.0078125,-0.023438,0.015625,-0.015625,-0.03125,0.015625,-0.015625,-0.0078125,0,-0.039063,-0.023438,-0.023438,0.015625,0,-0.015625,0,-0.015625,-0.0078125,0.015625,-0.015625,-0.023438,0,-0.0078125,0,-0.039063,0.19531,-0.10938,0,0,0.023438,0.046875,-0.046875,-0.0078125,-0.070313,0.0078125,-0.03125,0,-0.054688,-0.015625,0.023438,-0.015625,-0.039063,0.015625,-0.023438,-0.015625,-0.054688,-0.023438,0.0078125,0.039063,-0.015625,0.023438,-0.039063,-0.039063,0.0078125,-0.023438,-0.0078125,-0.03125
-0.0078125,-0.023438,-0.015625,-0.0078125,0,-0.023438,-0.039063,0.0078125,0,-0.015625,-0.0078125,-0.023438,-0.03125,0.015625,-0.023438,-0.015625,-0.03125,-0.03125,0.015625,0.0078125,-0.039063,0,-0.023438,0.023438,0,0,0.023438,-0.015625,-0.03125,-0.0078125,0,-0.015625,-0.015625,-0.039063,-0.015625,0,0,0.0078125,0.015625,-0.03125,0.023438,-0.039063,-0.0078125,0,-0.015625,0.0078125,-0.023438,-0.0078125,-0.0078125,-0.0078125,-0.023438,-0.0078125,0.015625,-0.046875,0,-0.0078125,0,-0.0078125,0,-0.046875,0,-0.0078125,-0.03125,0.015625,-0.023438,0,-0.054688,-0.023438,-0.046875,0.015625,-0.015625,-0.03125,-0.0078125,-0.015625,0.0078125,0.015625,-0.03125,0.015625,0,-0.0078125,0.0078125,-0.039063,-0.0078125,-0.0078125,-0.015625,-0.0078125,0.015625,-0.023438,0.0078125,-0.039063,-0.0078125,-0.03125,-0.0078125,0,-0.015625,0.0078125,0,-0.0078125,0.0078125,-0.0078125,-0.015625,-0.015625,-0.0078125,-0.023438,-0.015625,0.015625,-0.015625,-0.0078125,0,0.0078125,-0.023438,-0.0078125,-0.046875,0.023438,0.023438,-0.03125,0.0625,-0.039063,-0.039063,-0.0078125,-0.023438,0,0.03125,-0.15625,0.046875,-0.25,-0.03125,0.046875,-0.0625,0.0625,-0.0078125,-0.0078125,0.015625,0.03125,-0.10156,0.09375,-0.03125,0,0,-0.015625,-0.015625,-0.0078125,0.0078125,0,-0.015625,0.015625,0.015625,-0.015625,-0.03125,-0.0078125
-0.0078125,-0.015625,-0.0078125,-0.015625,0,-0.0078125,-0.0078125,0.0078125,-0.03125,-0.0078125,-0.015625,0,-0.0078125,-0.0078125,-0.015625,-0.03125,-0.0078125,0,-0.0078125,0.0078125,-0.0078125,0,0,-0.015625,-0.015625,-0.015625,0,-0.023438,0,-0.023438,-0.0078125,-0.0078125,0,-0.03125,-0.023438,0,0,-0.015625,-0.0078125,-0.023438,0.0078125,-0.0078125,0,0,-0.03125,0.015625,-0.015625,0,0,-0.046875,-0.03125,-0.015625,-0.0078125,0.023438,-0.023438,-0.03125,0.0078125,-0.054688,0.0078125,-0.0078125,-0.0078125,-0.0078125,0.0078125,-0.03125,0,-0.03125,0.0078125,0.0078125,-0.03125,0.0078125,-0.03125,-0.023438,-0.015625,-0.015625,0.0078125,0,-0.039063,0,-0.023438,0.0078125,0.015625,-0.0078125,-0.015625,0.03125,-0.078125,-0.0078125,0.0078125,-0.0078125,0.0078125,-0.015625,-0.078125,0.015625,-0.015625,-0.023438,0.015625,-0.03125,0,-0.0078125,0,-0.03125,0.0078125,-0.023438,-0.0078125,-0.054688,0.015625,-0.0078125,-0.0078125,-0.0078125,-0.015625,0,0,-0.0078125,-0.039063,0.015625,-0.0078125,-0.015625,-0.015625,-0.015625,-0.015625,-0.0078125,0.015625,-0.015625,-0.0078125,-0.039063,-0.0078125,0.023438,-0.0078125,-0.0078125,-0.0078125,-0.0078125,-0.015625,0.015625,-0.03125,0.0078125,-0.0078125,-0.0078125,-0.023438,0.0078125,-0.03125,-0.015625,0,-0.015625,-0.015625,-0.0078125,-0.015625,-0.0078125,-0.023438,0.0078125,-0.023438,-0.023438
-0.023438,-0.0078125,-0.015625,0,-0.0078125,-0.015625,-0.0078125,0,-0.015625,-0.0078125,-0.0078125,-0.015625,-0.015625,-0.023438,0.0078125,-0.0078125,-0.0078125,0,0,-0.03125,-0.015625,0,-0.015625,-0.015625,-0.015625,-0.0078125,-0.0078125,0.0078125,-0.015625,-0.0078125,-0.0078125,0,-0.023438,-0.0078125,0.015625,-0.054688,0,-0.023438,-0.0078125,0.023438,-0.039063,0.023438,-0.0078125,-0.10938,0.0078125,-0.023438,0,0.03125,0,-0.046875,0,-0.0078125,-0.023438,0.015625,-0.03125,-0.0078125,-0.015625,-0.03125,-0.039063,-0.03125,-0.03125,-0.023438,0.0078125,0,0,0,-0.023438,-0.0078125,-0.015625,-0.015625,0.0078125,0.015625,-0.085938,-0.03125,-0.039063,0.023438,0.039063,-0.046875,-0.03125,-0.0078125,0.015625,0.015625,0.0078125,-0.015625,-0.023438,0,-0.015625,-0.03125,0.015625,0.0078125,-0.039063,-0.0078125,-0.0078125,-0.0078125,-0.023438,0,-0.023438,-0.023438,-0.015625,-0.023438,-0.023438,-0.0078125,-0.0078125,-0.039063,-0.03125,0,-0.0078125,0.015625,0.0078125,-0.0078125,-0.0078125,0,0,-0.0078125,-0.0078125,0,0.015625,-0.023438,-0.0078125,-0.023438,0.078125,-0.28125,-0.0078125,0,0.015625,0.039063,-0.023438,-0.023438,-0.054688,0.0625,-0.023438,0,-0.023438,0.085938,0,-0.03125,-0.0625,-0.0078125,-0.0078125,-0.023438,0.03125,0.023438,-0.0078125,-0.054688,-0.03125,0.015625,-0.023438,0.015625,-0.0078125,-0.03125
-0.0078125,-0.015625,0,0,0,-0.023438,-0.015625,-0.0078125,-0.03125,0.023438,-0.023438,0,-0.0078125,-0.023438,0,0,0.015625,-0.023438,-0.0078125,-0.0078125,-0.023438,0,0,0.015625,-0.046875,-0.015625,-0.0078125,-0.023438,-0.015625,-0.015625,-0.015625,-0.0078125,0.0078125,-0.015625,0.0078125,0,-0.015625,-0.015625,-0.023438,-0.046875,-0.0078125,0,-0.015625,-0.023438,-0.03125,0.0078125,-0.015625,-0.0078125,0.023438,-0.015625,-0.015625,0,0,0,-0.0078125,-0.015625,0.03125,-0.023438,0.0078125,0,0,0.023438,-0.046875,-0.023438,0.015625,0.0078125,-0.10938,0.023438,-0.039063,0.015625,0.046875,-0.0078125,-0.015625,-0.023438,0.03125,-0.03125,-0.03125,-0.03125,-0.039063,0.023438,-0.046875,-0.0078125,0.015625,0,-0.039063,-0.015625,0.015625,0,-0.03125,-0.023438,0,0.015625,-0.015625,-0.015625,0.0078125,-0.046875,0.023438,0,-0.0078125,-0.015625,0,0.0078125,0,-0.046875,-0.0078125,-0.039063,-0.03125,-0.015625,0,-0.03125,0,0.0078125,-0.0078125,-0.0078125,-0.015625,-0.015625,-0.015625,-0.0078125,-0.0078125,-0.046875,-0.023438,-0.03125,0,0,0.09375,-0.0625,-0.023438,0.023438,-0.11719,0.14063,0.0078125,-0.046875,0.015625,0.0078125,-0.015625,0,-0.046875,-0.046875,-0.023438,0.015625,-0.039063,-0.015625,0.0078125,-0.0078125,-0.0078125,-0.0078125,-0.039063,0,0,-0.015625
-0.0078125,-0.0078125,-0.023438,0.015625,-0.015625,-0.023438,-0.023438,-0.0078125,-0.0078125,0,-0.03125,0.015625,-0.0078125,-0.039063,-0.0078125,0,-0.0078125,0,0.015625,-0.015625,-0.023438,-0.023438,-0.0078125,0,-0.023438,-0.023438,0,-0.0078125,0,0,0.015625,-0.023438,-0.0078125,0,-0.039063,-0.0078125,-0.0078125,-0.03125,0.0078125,-0.039063,0,-0.0078125,-0.0078125,-0.03125,-0.0078125,-0.039063,-0.023438,0.0078125,-0.03125,-0.0078125,0.0078125,0.023438,0,-0.0078125,0.0078125,-0.0078125,-0.0078125,0.0078125,-0.023438,-0.03125,0,-0.046875,0,-0.023438,0.039063,-0.0078125,-0.054688,-0.0078125,-0.0078125,0,-0.03125,0,-0.03125,0.015625,-0.015625,-0.0078125,-0.023438,-0.0078125,-0.0078125,-0.023438,0,0,0.0078125,-0.015625,-0.023438,0.0078125,-0.0078125,-0.023438,-0.015625,-0.023438,-0.023438,-0.039063,-0.0078125,0.0078125,-0.0078125,0.015625,-0.039063,-0.03125,0,-0.023438,-0.0078125,-0.0078125,-0.054688,0,0.046875,-0.070313,0.15625,-0.23438,0.16406,0.023438,0.085938,-0.039063,0.125,0,-0.085938,-0.125,0.078125,0.015625,-0.085938,0.054688,-0.125,0.17188,-0.078125,0.054688,-0.10938,0.03125,-0.039063,0.125,-0.13281,0.0625,0,-0.023438,-0.070313,-0.14063,-0.023438,0.10156,-0.0078125,-0.070313,0.039063,-0.054688,-0.015625,-0.046875,-0.015625,0.015625,-0.0078125,0.023438,-0.046875,-0.0078125,-0.023438,-0.10938
-0.023438,-0.023438,0,0.015625,-0.039063,0,-0.015625,-0.0078125,0,-0.03125,-0.03125,-0.015625,0.0078125,0.015625,0,-0.015625,0.0078125,-0.023438,0,-0.015625,-0.0078125,0,-0.0078125,-0.03125,-0.03125,0,-0.015625,-0.015625,-0.015625,-0.023438,-0.0078125,-0.023438,0,-0.0078125,-0.015625,0.015625,-0.015625,-0.0078125,-0.0078125,0,-0.0078125,-0.023438,-0.03125,-0.023438,0.015625,0,-0.03125,-0.0078125,-0.015625,0,0.0078125,-0.015625,-0.015625,-0.015625,-0.023438,0,0,-0.0078125,-0.023438,-0.023438,-0.0078125,0.0078125,0.039063,-0.015625,-0.10156,-0.023438,0.015625,0.015625,-0.0078125,-0.015625,-0.0078125,0,0.0078125,-0.0078125,-0.039063,0.0078125,-0.03125,0,-0.023438,-0.0078125,0.039063,-0.023438,-0.03125,-0.03125,0.0078125,-0.023438,-0.015625,-0.0078125,-0.015625,0.0078125,-0.023438,-0.023438,-0.015625,-0.03125,-0.0078125,-0.0078125,0.015625,0.0078125,-0.0078125,-0.03125,-0.023438,-0.046875,0.0078125,-0.015625,-0.015625,0,-0.03125,-0.0078125,0.015625,0.03125,-0.015625,-0.023438,-0.03125,0,-0.0625,0.09375,-0.078125,0.054688,-0.039063,-0.078125,0.046875,-0.039063,0.0078125,-0.03125,0.0078125,-0.023438,0,0,-0.023438,-0.015625,0.070313,-0.015625,0.054688,-0.0078125,0,-0.03125,-0.054688,0,-0.023438,0.023438,-0.023438,-0.0078125,0.070313,-0.30469,0.023438,-0.0078125,-0.046875,0.085938,0,-0.046875
-0.015625,-0.0078125,-0.03125,0.0078125,-0.0078125,-0.0078125,-0.015625,-0.023438,-0.015625,-0.0078125,-0.0078125,0.0078125,-0.015625,-0.0078125,-0.015625,-0.015625,-0.0078125,-0.015625,0.0078125,-0.015625,-0.0078125,-0.03125,-0.0078125,0,-0.0078125,-0.0078125,-0.023438,-0.0078125,-0.015625,-0.03125,0,0.0078125,-0.0078125,0.0078125,-0.0078125,-0.015625,-0.0078125,0,-0.015625,-0.0078125,-0.0078125,0.0078125,-0.0078125,0.015625,-0.0078125,-0.03125,0,-0.0078125,-0.046875,-0.015625,-0.015625,-0.0078125,0.015625,-0.054688,-0.015625,-0.023438,0.0078125,-0.0078125,0.0078125,-0.039063,0,0,-0.039063,-0.03125,-0.015625,0.023438,0,0,-0.015625,-0.0078125,-0.078125,0.0078125,-0.015625,-0.0078125,0,-0.0078125,-0.0078125,0,-0.0078125,-0.015625,-0.0625,-0.015625,0.03125,-0.023438,0.0078125,0.0078125,-0.0078125,0.0078125,-0.046875,-0.015625,0.03125,-0.046875,0.054688,-0.078125,0.0078125,0,0,-0.0078125,-0.015625,-0.03125,-0.023438,-0.0078125,-0.015625,0.0078125,0,0.023438,-0.046875,-0.0078125,-0.015625,-0.0078125,-0.0078125,-0.015625,-0.03125,-0.0078125,-0.015625,0.0078125,0.015625,-0.0078125,-0.015625,-0.023438,-0.023438,0,-0.015625,-0.0078125,0.0078125,0.023438,-0.0078125,-0.0078125,-0.054688,-0.023438,-0.015625,0.03125,0,-0.14844,0.13281,-0.046875,0.015625,-0.015625,-0.070313,-0.0078125,0.0078125,0.0078125,-0.039063,0,-0.023438,0.0078125,-0.023438,-0.0078125,-0.023438,0.070313
-0.015625,-0.015625,-0.039063,-0.0078125,-0.0078125,-0.023438,-0.0078125,-0.023438,-0.015625,0,0,0,-0.015625,-0.015625,0,-0.0078125,-0.03125,-0.0078125,-0.015625,-0.03125,0.0078125,-0.023438,-0.015625,-0.015625,0,-0.0078125,0,-0.03125,-0.015625,-0.023438,-0.039063,0.015625,-0.0078125,-0.039063,-0.015625,-0.03125,0.023438,-0.023438,0.0078125,0.023438,-0.054688,0.039063,-0.03125,0.023438,-0.054688,0,-0.015625,0.0078125,-0.023438,-0.015625,-0.054688,0.0078125,0.023438,-0.039063,-0.0078125,-0.023438,0,0.015625,0.015625,-0.054688,0.046875,0,0.0078125,-0.015625,-0.0078125,-0.0078125,0.015625,-0.046875,-0.015625,-0.023438,0,0.0078125,-0.070313,0.015625,0.023438,-0.039063,-0.015625,-0.023438,-0.03125,0.039063,0.015625,-0.039063,-0.0078125,0.0078125,-0.015625,-0.015625,-0.03125,-0.023438,-0.015625,0.0078125,-0.023438,-0.015625,-0.015625,0.0078125,0.0078125,-0.015625,0,-0.015625,-0.015625,-0.0078125,-0.015625,0,0,-0.023438,-0.0078125,-0.046875,0.085938,-0.25781,0.023438,-0.070313,0.070313,0.078125,-0.015625,-0.10156,0.085938,0.03125,0.023438,0,0.0078125,0,-0.03125,-0.015625,0,0.039063,-0.054688,0.09375,-0.054688,-0.0078125,-0.015625,0.0078125,-0.085938,-0.046875,0.023438,-0.015625,-0.09375,0.046875,-0.046875,0.070313,-0.0625,0.03125,-0.039063,-0.046875,-0.0625,0.015625,0,-0.0078125,-0.015625,-0.046875,-0.0078125,0
-0.023438,-0.015625,-0.0078125,0.015625,-0.03125,-0.023438,0,-0.0078125,0,-0.0078125,-0.015625,-0.046875,0.0078125,0,-0.023438,-0.03125,0.0078125,-0.023438,-0.0078125,-0.0078125,-0.015625,0.0078125,-0.039063,0,-0.0078125,-0.015625,-0.0078125,0.0078125,-0.046875,0,-0.015625,0.0078125,0.0078125,-0.03125,-0.039063,-0.0078125,0.0078125,0,0,-0.015625,-0.039063,-0.015625,0.0078125,-0.046875,-0.0078125,-0.03125,0,0.0078125,-0.03125,-0.03125,0,0,0.0078125,-0.015625,0.015625,-0.0078125,-0.0078125,-0.015625,-0.054688,-0.023438,0,0,-0.046875,-0.0078125,-0.015625,-0.023438,0.03125,-0.023438,0.0078125,0.039063,-0.0625,-0.0078125,-0.015625,-0.0078125,-0.039063,-0.015625,-0.023438,-0.046875,0,0,0.0078125,-0.023438,0.015625,-0.023438,0,-0.0078125,-0.015625,-0.015625,-0.0078125,0,-0.023438,0,-0.03125,0,0.0078125,0.0078125,-0.039063,0,0.023438,-0.085938,0,0,0.03125,-0.03125,0.046875,-0.046875,0.054688,-0.015625,-0.054688,-0.054688,-0.125,0.25781,-0.16406,0.015625,0.16406,-0.023438,0.13281,-0.070313,-0.09375,-0.10156,-0.015625,-0.039063,-0.03125,-0.039063,-0.039063,0.078125,-0.023438,-0.046875,0.03125,-0.0078125,-0.0078125,-0.03125,-0.0078125,-0.03125,0,-0.015625,0.023438,-0.070313,-0.0078125,-0.0078125,-0.10156,0.13281,-0.023438,-0.039063,-0.046875,-0.023438,-0.03125,-0.0078125,0.023438,0.0078125
-0.0078125,-0.015625,-0.039063,-0.046875,-0.0078125,0.015625,-0.046875,0,-0.039063,-0.0078125,0.039063,-0.0078125,-0.11719,-0.023438,-0.046875,0.039063,0.054688,-0.039063,0.0078125,-0.015625,0,0,0.0078125,0.0078125,-0.0078125,0,-0.03125,-0.03125,0.015625,0.0078125,-0.0078125,-0.015625,0.054688,-0.039063,-0.023438,-0.0078125,-0.015625,0,-0.0078125,-0.023438,-0.0078125,0.015625,-0.015625,0.03125,-0.085938,-0.015625,0.015625,-0.015625,0.015625,0,-0.0078125,-0.023438,0,0.0078125,0,-0.054688,0.023438,-0.039063,-0.015625,0.0078125,-0.023438,0.03125,-0.085938,-0.0078125,0.0078125,0,0.0078125,-0.039063,-0.0078125,-0.039063,0.023438,-0.023438,-0.10156,-0.023438,0.015625,0.070313,-0.11719,-0.0625,-0.039063,0.039063,0.0625,0,0.039063,-0.023438,0.0078125,0.046875,-0.0078125,-0.046875,-0.023438,0.0078125,-0.039063,-0.015625,0.039063,-0.0078125,-0.023438,-0.03125,0.015625,-0.03125,-0.023438,0,0.0078125,-0.03125,0,-0.0078125,-0.015625,-0.03125,0,-0.039063,-0.015625,0,-0.023438,0.015625,0.0078125,-0.023438,-0.015625,-0.023438,0,-0.0078125,0,-0.03125,-0.0078125,-0.015625,-0.0625,0.10156,-0.023438,-0.0078125,-0.17969,0.10156,-0.078125,-0.015625,0.0078125,-0.085938,0.03125,-0.015625,-0.023438,0.0625,0,-0.023438,0.039063,-0.09375,0.015625,0,0.023438,-0.054688,-0.023438,-0.0078125,0.039063,-0.039063,0,0.0078125
-0.03125,-0.015625,-0.03125,0,-0.0078125,-0.0078125,-0.023438,0.015625,0.0078125,-0.0078125,0,-0.03125,-0.0078125,0,-0.03125,-0.023438,-0.015625,-0.015625,0,0,0,-0.03125,-0.0078125,0.015625,0.015625,-0.03125,-0.023438,0.0078125,-0.023438,0,-0.0078125,-0.023438,-0.015625,-0.0078125,-0.023438,0.0078125,0.0078125,-0.023438,-0.015625,0.023438,-0.046875,-0.0078125,0,0.0078125,-0.0078125,0,0.03125,-0.03125,-0.015625,-0.03125,0.0078125,-0.03125,-0.078125,0.03125,-0.023438,0.03125,0,-0.0078125,0.03125,-0.039063,-0.023438,0.0078125,-0.054688,-0.015625,0.054688,-0.046875,-0.039063,-0.023438,0.023438,0.0078125,-0.0078125,-0.046875,-0.03125,0,-0.0078125,0,-0.046875,0.0078125,0.015625,-0.023438,0,-0.015625,-0.054688,-0.015625,-0.070313,0,0.03125,-0.046875,0,-0.0078125,0.0078125,0.0078125,0,-0.023438,-0.0078125,-0.0078125,0.0078125,-0.0078125,-0.023438,-0.015625,0,-0.015625,-0.039063,-0.0078125,-0.0078125,-0.0078125,-0.03125,0,0,-0.0078125,0,-0.039063,-0.0078125,-0.0078125,-0.023438,0.015625,-0.015625,-0.015625,-0.039063,0,-0.015625,-0.023438,0.03125,-0.023438,-0.03125,-0.023438,-0.046875,0.070313,-0.015625,-0.015625,-0.03125,-0.023438,0.015625,-0.015625,-0.023438,-0.023438,-0.046875,0.039063,0.015625,-0.015625,-0.015625,-0.03125,0,-0.023438,0.023438,-0.0078125,0.0078125,-0.015625,0,-0.0078125
0.015625,-0.023438,0,-0.023438,-0.0078125,-0.0078125,-0.0078125,-0.023438,0.0078125,0,0,-0.0078125,-0.023438,-0.0078125,-0.0078125,0.0078125,-0.039063,-0.0078125,-0.0078125,-0.0078125,-0.023438,-0.0078125,-0.023438,0.015625,-0.015625,0,0,-0.03125,0.015625,-0.023438,-0.015625,0.0078125,-0.0078125,-0.023438,-0.0078125,-0.0078125,0,0.0078125,-0.015625,-0.0078125,0.0078125,-0.03125,0.0078125,-0.0078125,0,0,0.015625,0.015625,0.015625,-0.0078125,-0.039063,0,-0.0078125,0.0078125,-0.03125,-0.03125,-0.023438,0.023438,-0.023438,-0.046875,-0.03125,-0.023438,0.03125,-0.0078125,-0.023438,-0.023438,-0.0078125,-0.039063,-0.023438,-0.0078125,-0.0078125,0.015625,0.015625,0,-0.0078125,-0.03125,-0.015625,-0.0078125,0.015625,0.0078125,-0.03125,0,-0.0078125,-0.023438,-0.0078125,-0.015625,-0.0078125,-0.023438,0.023438,-0.015625,-0.070313,0.0078125,0,0,-0.015625,0,-0.0078125,-0.03125,0,-0.039063,-0.015625,-0.03125,-0.0078125,-0.0078125,-0.0078125,0,-0.023438,0,-0.039063,-0.023438,-0.015625,0.0078125,0.0078125,-0.125,0.015625,0.10938,-0.078125,0.26563,-0.11719,-0.023438,-0.015625,0.0078125,0.0078125,-0.015625,0.023438,-0.0625,0,-0.046875,0.03125,-0.054688,-0.125,0.15625,0,-0.054688,0.039063,-0.085938,0.0078125,-0.023438,0.0078125,-0.03125,-0.015625,0,0,-0.03125,-0.0078125,-0.023438,0.03125,-0.046875,-0.0078125,-0.015625
-0.0078125,0.015625,0,-0.023438,0,-0.023438,-0.015625,-0.015625,-0.015625,0,-0.015625,-0.0078125,-0.023438,-0.0078125,-0.015625,-0.015625,-0.03125,0,0.0078125,-0.023438,-0.0078125,-0.023438,0,0.015625,0,0,-0.023438,0.0078125,-0.023438,-0.03125,0,-0.0078125,-0.0078125,0,-0.023438,-0.0078125,-0.039063,0.015625,0,-0.0078125,-0.015625,-0.046875,-0.015625,-0.03125,0,-0.015625,0.039063,-0.14844,0.24219,-0.41406,0.015625,0.015625,-0.0625,0.070313,0.0078125,-0.023438,-0.023438,0.085938,-0.070313,0.09375,-0.10938,-0.0078125,0.023438,-0.10938,-0.070313,0.03125,-0.085938,0.023438,0.039063,0.054688,0.023438,0.023438,-0.046875,0.054688,-0.046875,-0.015625,-0.015625,0.0078125,0.046875,-0.03125,0,0.03125,-0.023438,0.015625,-0.023438,0.0078125,-0.015625,-0.015625,0,-0.015625,0,0.023438,-0.070313,0,-0.039063,0,0.0078125,-0.0078125,0.0078125,-0.0078125,-0.0078125,-0.039063,0,-0.015625,-0.015625,-0.015625,-0.023438,0,-0.023438,0,-0.023438,-0.015625,0.03125,0,-0.015625,0,-0.015625,-0.0078125,-0.0078125,0.015625,-0.015625,-0.0078125,-0.0625,0,0.125,-0.023438,0.03125,-0.070313,-0.085938,0.046875,-0.03125,-0.023438,-0.0078125,-0.023438,-0.023438,0.0078125,-0.023438,-0.10938,0.10938,0,0.039063,-0.070313,-0.054688,0.03125,-0.015625,0,-0.023438,-0.023438,-0.023438,0.015625
-0.0078125,0.0078125,-0.015625,0.0078125,-0.015625,0,0,0.0078125,-0.0078125,0,-0.0078125,-0.023438,-0.023438,-0.03125,-0.023438,-0.0078125,-0.015625,-0.015625,-0.015625,-0.015625,0.015625,-0.03125,0,-0.0078125,0,0.015625,0,0,-0.015625,-0.015625,-0.03125,0,-0.023438,0,0,-0.0078125,-0.023438,-0.0078125,0,-0.015625,-0.015625,0,-0.015625,-0.023438,-0.015625,-0.023438,-0.03125,-0.039063,-0.0078125,0,0,0.03125,-0.023438,-0.0625,-0.015625,0,0.023438,0.039063,-0.03125,-0.023438,0.0078125,0.03125,-0.03125,0,-0.015625,0.0078125,-0.039063,-0.03125,-0.015625,-0.046875,0.0078125,0.03125,-0.085938,0.0078125,0,-0.015625,0,-0.023438,-0.0078125,-0.046875,-0.0078125,-0.023438,0.023438,-0.046875,0.0078125,-0.03125,0,0.015625,0.0078125,-0.0078125,0,0,0,-0.0078125,-0.03125,0.0078125,0.015625,-0.0078125,-0.015625,-0.03125,0.0078125,-0.03125,0.015625,0,-0.015625,0,-0.03125,-0.0078125,-0.023438,-0.0078125,-0.03125,0.17969,-0.32813,-0.023438,-0.0078125,-0.039063,0.046875,0.039063,-0.023438,-0.046875,0.20313,-0.14844,0.039063,-0.0625,-0.046875,0.11719,0.015625,-0.046875,-0.046875,0.015625,-0.046875,-0.039063,0.046875,-0.015625,0.0078125,-0.023438,0.023438,-0.015625,-0.039063,0,-0.0078125,0.0078125,0,-0.015625,0.023438,-0.023438,-0.0078125,0.10938,-0.33594,-0.0078125
-0.0078125,0,-0.0078125,-0.03125,-0.015625,-0.023438,0.0078125,-0.015625,0,-0.015625,0,0,0,-0.039063,-0.015625,0.0078125,-0.0078125,-0.023438,-0.015625,-0.039063,0,0,-0.015625,0,-0.015625,-0.023438,0,-0.023438,-0.0078125,0,-0.015625,0.023438,-0.015625,0,-0.0078125,-0.015625,0,0,0.0078125,-0.03125,0,0,-0.015625,-0.015625,-0.023438,0,-0.023438,0.015625,-0.046875,-0.0078125,-0.03125,0.0078125,0.03125,-0.0078125,-0.015625,-0.046875,0.0078125,-0.0078125,-0.070313,-0.015625,0,0,0.03125,-0.03125,-0.0078125,-0.0078125,-0.015625,-0.054688,-0.0078125,-0.0078125,0,0,0.015625,-0.03125,-0.039063,0.015625,-0.015625,0.039063,-0.0078125,0.054688,-0.054688,-0.03125,0,0.015625,-0.023438,0.023438,-0.039063,0,0,-0.054688,0.0078125,-0.015625,-0.023438,0.023438,-0.023438,-0.023438,-0.0078125,-0.015625,0.0078125,-0.0078125,-0.023438,-0.0078125,0.0078125,0,-0.0078125,-0.023438,0.015625,-0.023438,-0.015625,-0.0078125,-0.015625,-0.015625,-0.0078125,-0.0078125,-0.0078125,-0.015625,-0.0078125,-0.015625,-0.0078125,-0.015625,-0.015625,-0.023438,-0.0078125,-0.03125,0,-0.023438,0.015625,-0.015625,0.015625,0,-0.0078125,-0.0078125,-0.015625,0.0078125,-0.046875,-0.039063,0.054688,-0.023438,0.0078125,-0.09375,0.015625,0.070313,0.0078125,0.015625,-0.078125,-0.015625,-0.03125,0,-0.023438,-0.039063
-0.0078125,0,0,-0.015625,-0.023438,-0.0078125,-0.03125,-0.0078125,-0.023438,0,-0.0078125,-0.023438,-0.0078125,0.0078125,-0.015625,-0.0078125,0,-0.0078125,-0.023438,-0.015625,0,-0.039063,0,-0.0078125,-0.0078125,-0.015625,-0.039063,-0.0078125,0.015625,-0.03125,-0.015625,0,0,0,0.0078125,-0.023438,-0.0078125,-0.0078125,-0.03125,-0.023438,-0.015625,-0.0078125,0.015625,0,-0.015625,0,-0.03125,0,-0.0078125,0.023438,-0.03125,-0.0078125,-0.023438,-0.015625,0.023438,-0.0078125,-0.023438,-0.039063,-0.015625,-0.046875,-0.0078125,0.0078125,-0.0078125,-0.0078125,-0.023438,-0.0625,0.023438,0.015625,-0.0078125,0.046875,-0.0078125,-0.03125,-0.015625,-0.015625,-0.023438,0.015625,-0.03125,0.015625,0.0078125,-0.10156,-0.015625,-0.085938,0.015625,0.0625,-0.09375,0.0078125,-0.054688,-0.015625,0.046875,-0.015625,-0.039063,-0.03125,0.046875,-0.015625,0,-0.015625,0.015625,0.0078125,0.023438,-0.0078125,0.0078125,-0.015625,0,-0.023438,-0.0078125,-0.015625,-0.0078125,0.015625,-0.039063,0.0078125,-0.023438,0.0078125,0.0078125,-0.0078125,-0.046875,-0.015625,-0.015625,0,0.0078125,-0.015625,-0.0078125,-0.03125,0.023438,-0.039063,-0.0078125,0.0078125,0.03125,0.17969,-0.09375,-0.015625,-0.046875,0.023438,0.023438,-0.03125,0,-0.078125,-0.039063,0.070313,-0.03125,-0.015625,-0.085938,0,0.0078125,-0.054688,0.046875,-0.03125,-0.03125,-0.039063,-0.0078125,0
-0.023438,0.0078125,-0.015625,0,-0.0078125,-0.03125,0,-0.03125,0.0078125,-0.023438,-0.015625,0,0,-0.015625,-0.0078125,0.0078125,-0.015625,-0.0078125,-0.0078125,-0.0078125,0.0078125,-0.0078125,-0.0078125,-0.015625,-0.03125,-0.015625,-0.0078125,0,-0.015625,-0.015625,0.0078125,0,-0.015625,-0.0078125,-0.039063,-0.023438,0,-0.039063,0.0078125,0.0078125,-0.0078125,0.0078125,-0.015625,-0.03125,0.0078125,0.015625,-0.015625,-0.023438,0,0.046875,-0.0625,0,-0.03125,0.0078125,-0.0078125,-0.046875,-0.015625,-0.015625,-0.015625,-0.015625,0.0078125,-0.03125,0.0078125,0.039063,-0.039063,-0.09375,-0.0078125,0,-0.023438,0,-0.0078125,-0.046875,0.0078125,-0.03125,-0.0078125,0.015625,-0.0078125,-0.039063,-0.0078125,-0.015625,0.0078125,0.0078125,0,-0.03125,0.0078125,-0.0078125,-0.015625,-0.0078125,0,-0.015625,-0.023438,0.015625,-0.03125,0.039063,0,-0.0078125,-0.0078125,-0.0078125,0.0078125,-0.023438,-0.015625,-0.0078125,0,-0.03125,-0.0078125,-0.03125,-0.0078125,-0.0078125,0,-0.039063,0.11719,-0.28125,-0.015625,0,-0.046875,0.039063,0,-0.015625,0.015625,0.039063,-0.0625,0.10156,-0.054688,0.046875,-0.054688,-0.03125,-0.0078125,-0.015625,0.015625,0.0078125,-0.03125,0.046875,-0.023438,-0.015625,-0.078125,0.0625,-0.023438,0.046875,-0.023438,0.0078125,-0.015625,-0.054688,-0.0078125,-0.015625,0,-0.015625,0,-0.03125,0,-0.03125
-0.015625,0,-0.015625,-0.015625,0.015625,0.015625,0.0078125,-0.0078125,-0.039063,-0.0078125,-0.023438,-0.015625,-0.015625,-0.0078125,0.015625,-0.023438,0,-0.023438,-0.0078125,-0.0078125,-0.0078125,-0.0078125,-0.0078125,-0.015625,-0.015625,-0.0078125,-0.0078125,-0.023438,-0.0078125,0.015625,-0.0078125,-0.015625,0,-0.023438,-0.023438,-0.023438,-0.015625,0,-0.03125,-0.023438,0,-0.023438,-0.023438,0.0078125,-0.039063,-0.0078125,-0.0078125,-0.03125,-0.0078125,0.0078125,-0.023438,0.0078125,0.0078125,-0.0078125,-0.0078125,0,0,-0.023438,0,-0.03125,0.015625,-0.03125,-0.015625,-0.015625,0,0,0,-0.015625,-0.015625,-0.039063,-0.015625,0.0078125,-0.0078125,-0.015625,0.015625,-0.0078125,-0.03125,-0.039063,-0.023438,-0.015625,0,0.0078125,-0.023438,0.015625,-0.023438,0.023438,0.0078125,0.0078125,-0.03125,-0.03125,0.015625,-0.0078125,-0.03125,-0.023438,-0.0078125,0,-0.03125,-0.0078125,0.023438,-0.015625,-0.0078125,0,0.0078125,-0.015625,-0.0078125,-0.023438,-0.023438,-0.015625,-0.0078125,-0.0078125,-0.023438,-0.070313,-0.03125,0.0078125,-0.023438,-0.015625,0,-0.023438,-0.03125,-0.023438,-0.0078125,-0.015625,-0.015625,0,-0.015625,-0.0078125,-0.039063,-0.09375,0.054688,0.03125,-0.015625,-0.015625,-0.03125,-0.015625,0.0078125,0.0078125,-0.023438,0,0,0,0,-0.023438,-0.0078125,0.023438,-0.023438,-0.039063,-0.023438,0.046875,-0.023438,-0.015625
0,-0.015625,-0.015625,0,-0.0078125,-0.015625,-0.023438,-0.015625,0.0078125,0,-0.023438,-0.0078125,-0.0078125,0,-0.015625,-0.03125,-0.015625,0,-0.0078125,0.0078125,-0.015625,-0.015625,-0.0078125,-0.0078125,-0.03125,-0.015625,-0.015625,-0.0078125,0,-0.015625,-0.03125,-0.0078125,0,-0.015625,0.023438,-0.015625,-0.023438,0,-0.015625,-0.015625,-0.0078125,-0.054688,0.0078125,0.015625,0.015625,0,-0.015625,0.0078125,-0.015625,-0.0078125,-0.015625,0,0.015625,0,-0.0078125,-0.023438,0,-0.0625,-0.0078125,-0.054688,-0.015625,0.03125,0.015625,-0.015625,0,-0.046875,-0.015625,0.015625,-0.039063,-0.0078125,0,-0.023438,0,0,-0.03125,0,-0.046875,0,-0.03125,0.023438,-0.015625,-0.0078125,0,-0.023438,-0.023438,0.023438,-0.015625,-0.046875,-0.015625,0,0.0078125,0,0,0,-0.023438,-0.0078125,-0.023438,-0.015625,-0.070313,0.015625,0.015625,-0.0078125,-0.023438,-0.03125,0,-0.0625,0.039063,-0.015625,0.070313,-0.20313,0.13281,0.10156,-0.078125,0.039063,-0.09375,-0.039063,-0.0078125,0.0078125,-0.039063,0.023438,-0.039063,-0.078125,0.23438,-0.17969,-0.078125,0.13281,-0.070313,0.078125,0.015625,-0.0078125,-0.070313,0.0078125,-0.039063,0.039063,-0.054688,-0.039063,0.03125,0,-0.0078125,-0.039063,-0.070313,0.09375,-0.070313,-0.023438,0.0078125,-0.046875,0.015625,0,0.015625,-0.039063
-0.03125,0,-0.039063,0,0,-0.023438,0.0078125,-0.0078125,-0.0078125,0.0078125,0,-0.0078125,-0.0078125,-0.023438,-0.015625,0,0,-0.015625,-0.015625,-0.0078125,-0.023438,0,-0.03125,0.0078125,-0.0078125,-0.015625,-0.015625,-0.0078125,-0.03125,0,0.015625,-0.0078125,-0.0078125,0,-0.0078125,-0.015625,0,0,-0.03125,-0.023438,-0.023438,-0.03125,-0.0078125,-0.023438,0.0078125,-0.0078125,-0.03125,0.015625,-0.015625,-0.0078125,-0.0078125,-0.023438,0,0,-0.046875,0,0,-0.0078125,0.023438,-0.015625,-0.023438,-0.015625,-0.015625,-0.023438,0.0078125,-0.046875,0.023438,0,-0.039063,0,0.015625,0.0078125,-0.015625,-0.0078125,0.0078125,-0.0078125,0,-0.0078125,-0.0625,-0.03125,0,0.0078125,-0.039063,-0.015625,-0.023438,-0.0078125,0.0078125,-0.039063,0,-0.023438,-0.015625,0,-0.023438,0,0.0078125,-0.0078125,-0.015625,-0.023438,-0.023438,-0.0078125,-0.015625,-0.015625,0.0078125,-0.023438,-0.0078125,-0.015625,-0.015625,0.03125,-0.0078125,-0.015625,0,-0.015625,0.023438,-0.015625,-0.015625,-0.03125,-0.015625,-0.0078125,-0.015625,0,0.0078125,-0.015625,-0.023438,-0.015625,0,-0.0078125,-0.039063,0,-0.023438,0.0078125,0,-0.023438,-0.015625,-0.023438,-0.015625,-0.0078125,0,-0.015625,0.0078125,-0.023438,-0.039063,-0.023438,0,0.0078125,-0.015625,-0.015625,-0.015625,-0.0078125,-0.023438,0
-0.03125,0,-0.023438,-0.015625,0,-0.0078125,0.0078125,-0.0078125,-0.0078125,-0.039063,-0.0078125,-0.0078125,0,0,0,-0.015625,-0.023438,0.015625,0,0,-0.0078125,-0.023438,-0.0078125,-0.0078125,-0.015625,0,-0.015625,-0.023438,-0.0078125,-0.0078125,0,-0.03125,-0.023438,-0.0078125,0,0,0.015625,-0.015625,-0.03125,-0.0078125,-0.015625,0,-0.039063,0.015625,-0.015625,-0.0078125,0,-0.015625,0.0078125,-0.023438,0,-0.015625,0,-0.03125,0.03125,-0.015625,0,-0.0078125,-0.03125,0.015625,-0.03125,-0.03125,0.0078125,-0.023438,-0.046875,0.0078125,-0.023438,-0.039063,0.0078125,-0.0078125,0.03125,0.023438,-0.03125,-0.03125,0.0078125,-0.0078125,0.0078125,0.0078125,-0.015625,0.023438,-0.046875,0.0078125,-0.03125,0.0078125,-0.03125,-0.03125,-0.023438,0,0,0.0078125,-0.015625,-0.023438,0.015625,0.0078125,-0.0078125,-0.023438,-0.0078125,-0.015625,-0.0078125,-0.015625,-0.015625,0,-0.015625,-0.0078125,-0.0078125,-0.0078125,-0.023438,-0.023438,0,-0.0078125,-0.0078125,0,0.0078125,-0.023438,-0.015625,-0.015625,-0.015625,0.0078125,-0.015625,-0.0078125,-0.015625,-0.015625,-0.0078125,-0.015625,-0.0078125,-0.03125,0,-0.03125,-0.0078125,-0.0078125,-0.0078125,0,-0.015625,-0.023438,-0.023438,-0.023438,0,0,0,-0.023438,-0.0078125,0,0,0.023438,-0.03125,-0.03125,-0.015625,0,-0.03125,-0.015625
-0.015625,0.0078125,0.0078125,-0.0078125,-0.03125,-0.03125,-0.015625,0.0078125,0,0,-0.023438,-0.03125,-0.0078125,-0.0078125,0,0.0078125,-0.046875,-0.0078125,0.0078125,-0.015625,-0.0078125,0,0,-0.023438,-0.015625,-0.015625,-0.015625,-0.023438,0.0078125,-0.0078125,-0.03125,0.0078125,0,-0.039063,-0.03125,-0.023438,-0.03125,0.0078125,-0.0078125,0.046875,0,-0.015625,-0.03125,-0.023438,0.023438,0.015625,-0.0078125,0,-0.0078125,-0.015625,0.015625,-0.023438,-0.046875,0.015625,-0.015625,-0.023438,-0.023438,-0.0078125,0.015625,-0.0625,-0.0078125,-0.0078125,0.0078125,-0.015625,-0.0078125,0.039063,-0.070313,0.0078125,-0.0078125,-0.070313,0.023438,-0.015625,0,-0.015625,-0.03125,0,0,-0.015625,-0.023438,0,-0.015625,0,0.0078125,-0.015625,-0.023438,-0.015625,0.023438,-0.046875,0,-0.015625,-0.03125,0.03125,-0.046875,-0.0078125,-0.0078125,-0.023438,-0.0078125,-0.0078125,-0.015625,0.0078125,0.015625,-0.023438,0.0078125,-0.023438,-0.0078125,-0.039063,-0.0078125,0,-0.023438,0,-0.015625,0.015625,-0.023438,-0.023438,-0.03125,-0.015625,0.023438,-0.015625,-0.0078125,-0.0078125,0,-0.03125,0.0078125,-0.023438,-0.03125,0.023438,-0.015625,-0.015625,-0.015625,0.023438,-0.015625,-0.03125,-0.015625,-0.023438,0.0078125,-0.015625,-0.015625,-0.0078125,0.015625,-0.0078125,-0.0078125,-0.03125,-0.03125,-0.0078125,-0.0078125,0,-0.015625,-0.039063,0,-0.015625
-0.023438,-0.0078125,-0.0078125,-0.0078125,-0.015625,-0.03125,-0.015625,-0.023438,-0.03125,-0.015625,-0.023438,-0.0078125,0.0078125,0.0078125,-0.0078125,-0.0078125,0,-0.0078125,0.015625,-0.023438,-0.015625,-0.0078125,-0.0078125,-0.015625,0.0078125,-0.0078125,-0.023438,0,-0.015625,0,0.0078125,-0.023438,-0.015625,0,0.0078125,0.0078125,0,-0.03125,-0.0078125,-0.03125,-0.0078125,0.0078125,0.0078125,-0.023438,-0.054688,0.023438,-0.015625,0.03125,-0.085938,-0.023438,0,0.03125,0,-0.046875,-0.015625,-0.023438,0.046875,0.015625,-0.054688,0,0.03125,-0.03125,0,-0.054688,-0.0078125,-0.023438,-0.03125,-0.015625,0.015625,0.015625,-0.023438,-0.046875,-0.015625,0.039063,-0.0625,-0.015625,0.023438,-0.023438,0.03125,-0.03125,-0.054688,-0.03125,0.023438,-0.0078125,0.0078125,-0.03125,0,0,-0.023438,-0.015625,-0.0078125,0.015625,-0.046875,-0.046875,-0.023438,-0.015625,-0.0078125,0,-0.0078125,-0.0078125,-0.023438,-0.0078125,-0.015625,0.039063,-0.015625,-0.03125,-0.015625,-0.0078125,-0.015625,-0.023438,-0.0078125,-0.015625,-0.0078125,-0.0078125,-0.0078125,0.0078125,0.0078125,-0.0078125,-0.0078125,-0.023438,-0.0078125,-0.0078125,-0.03125,0.023438,0.21875,-0.42188,-0.039063,0.19531,-0.25,0.10156,0.0078125,-0.085938,0.046875,0.078125,-0.054688,0.023438,-0.015625,0.0078125,0.03125,-0.070313,-0.015625,0.046875,0.0078125,-0.039063,-0.054688,0.0625,0,-0.023438,0.0078125,0
0,-0.015625,0,0.015625,-0.015625,-0.023438,-0.023438,-0.023438,-0.023438,0,0.0078125,0.0078125,-0.015625,-0.015625,0.0078125,-0.023438,-0.023438,0,0,-0.0078125,0,0,-0.015625,-0.039063,-0.023438,-0.0078125,0.0078125,-0.015625,0,-0.023438,-0.0078125,-0.03125,-0.015625,-0.023438,-0.0078125,-0.0078125,-0.0078125,0,-0.023438,0.0078125,-0.015625,-0.023438,0,-0.015625,0.0078125,-0.0078125,-0.015625,-0.0078125,0.0078125,-0.03125,-0.0078125,0.015625,-0.023438,-0.015625,-0.015625,-0.023438,-0.0078125,0.03125,-0.039063,-0.03125,0.0078125,-0.0078125,-0.0078125,-0.046875,-0.023438,0.015625,-0.0078125,-0.015625,-0.015625,0.015625,0,0.0078125,-0.0078125,0,-0.054688,0.023438,-0.023438,0,-0.0078125,-0.023438,-0.015625,-0.03125,-0.015625,0,-0.0078125,-0.0078125,0,-0.0078125,-0.0078125,-0.039063,-0.015625,-0.023438,-0.015625,-0.03125,0.0078125,0.0078125,-0.0078125,-0.023438,0.0078125,-0.0078125,-0.015625,0.0078125,-0.023438,-0.03125,-0.039063,-0.0078125,0,-0.0078125,-0.015625,0,-0.03125,0,-0.015625,-0.0078125,0.015625,0,-0.015625,-0.015625,-0.054688,0,0.0078125,-0.015625,-0.0078125,-0.03125,-0.015625,0.0078125,0,-0.0078125,0,-0.015625,-0.03125,0,-0.023438,-0.03125,0,-0.023438,-0.015625,-0.03125,0.0078125,-0.015625,0,-0.015625,-0.0078125,-0.0078125,0,-0.015625,0,-0.0078125,-0.015625,0
0,-0.015625,-0.0078125,-0.03125,0.0078125,-0.015625,0,-0.023438,0,-0.015625,-0.015625,0.0078125,-0.0078125,0,-0.023438,-0.0078125,-0.023438,-0.03125,-0.023438,0,-0.015625,0.0078125,-0.0078125,0.0078125,0.0078125,-0.015625,-0.015625,-0.0078125,-0.03125,-0.015625,0,0,-0.023438,0,0.0078125,-0.023438,-0.015625,0,-0.023438,0,0.0078125,-0.023438,-0.0078125,-0.039063,-0.0078125,0,0,-0.015625,0,-0.015625,-0.023438,-0.023438,-0.023438,0,-0.0078125,-0.023438,-0.015625,0.015625,0.015625,0,-0.015625,-0.023438,0.0078125,0.023438,-0.03125,-0.0078125,-0.0078125,-0.039063,-0.0078125,-0.0078125,0,-0.03125,-0.023438,0.0078125,-0.015625,0.0078125,-0.0078125,-0.0078125,-0.039063,0.015625,-0.039063,-0.0078125,-0.0078125,0.015625,-0.054688,0.0078125,0.0078125,-0.03125,-0.039063,-0.046875,0.0078125,0.0078125,0.023438,-0.023438,-0.023438,-0.0078125,-0.023438,0.0078125,0.023438,-0.03125,0.015625,-0.0078125,0,-0.0078125,0.015625,-0.046875,-0.023438,-0.015625,-0.0078125,-0.015625,-0.03125,0,0,0,-0.0078125,0,-0.0078125,0,-0.023438,-0.023438,0,-0.023438,0,-0.0078125,0,0,0,-0.015625,-0.0078125,0,-0.023438,0.0078125,-0.023438,0.0078125,-0.015625,-0.023438,0,-0.023438,-0.015625,0,-0.03125,-0.015625,0,0.0078125,-0.015625,-0.015625,-0.023438,-0.015625,-0.0078125,-0.015625
-0.015625,-0.023438,-0.015625,-0.023438,0,0,-0.046875,-0.015625,-0.015625,-0.0078125,-0.015625,0,-0.023438,-0.015625,-0.0078125,-0.0078125,0,-0.0078125,-0.0078125,-0.0078125,-0.023438,-0.015625,0.0078125,0.0078125,-0.03125,-0.0078125,-0.015625,-0.023438,-0.015625,-0.0078125,-0.0078125,-0.046875,0,-0.0078125,-0.023438,-0.015625,0.0078125,0,0,0.0078125,-0.015625,0.03125,-0.0625,0.023438,0,0,0,-0.046875,-0.023438,-0.03125,0,0.023438,0,-0.03125,-0.0078125,-0.015625,0,-0.054688,0.023438,0,0,-0.023438,-0.023438,-0.015625,-0.03125,0.015625,0.0078125,-0.023438,-0.0078125,-0.039063,-0.0078125,-0.015625,-0.023438,0,-0.023438,-0.0078125,-0.03125,-0.023438,-0.015625,-0.0078125,0.015625,0.023438,-0.03125,-0.023438,-0.054688,-0.0078125,-0.0078125,-0.023438,0,-0.023438,-0.023438,0,-0.015625,-0.0078125,0.0078125,-0.015625,-0.0078125,-0.015625,-0.023438,0.0078125,0,0,-0.0078125,0,-0.0078125,0,0.015625,-0.03125,-0.0078125,0.0078125,-0.023438,0,0,0.0078125,0.0078125,-0.046875,0,0,-0.0078125,-0.023438,-0.0078125,-0.0078125,-0.039063,0,-0.0078125,-0.039063,-0.015625,-0.0078125,-0.0078125,0.0078125,-0.015625,-0.0078125,0,-0.015625,-0.0078125,0.0078125,-0.023438,-0.0078125,0.0078125,-0.0078125,-0.0078125,-0.023438,-0.015625,-0.03125,0,0,0,0,0.0078125,-0.015625
-0.0078125,-0.023438,0,-0.023438,0,-0.0078125,-0.03125,-0.0078125,-0.0078125,-0.023438,0,-0.0078125,-0.03125,-0.0078125,-0.023438,-0.015625,-0.023438,0,0,-0.0078125,-0.03125,-0.0078125,-0.023438,-0.03125,-0.015625,-0.023438,-0.0078125,-0.023438,0,0.0078125,0,-0.0078125,-0.015625,-0.0078125,-0.03125,-0.0078125,0,0,0.0078125,-0.0078125,0,-0.039063,0,-0.0078125,-0.039063,-0.015625,-0.015625,0,-0.0078125,0,-0.015625,-0.03125,0.0078125,-0.023438,0,-0.015625,-0.023438,-0.0078125,0.0078125,-0.039063,0.0078125,0.0078125,-0.039063,0.070313,0.015625,0,0,-0.039063,-0.03125,-0.015625,0.03125,-0.03125,-0.023438,0,0,-0.0078125,-0.03125,0,-0.015625,-0.046875,0.023438,-0.039063,-0.0078125,-0.0078125,-0.0078125,-0.015625,0,-0.0078125,-0.03125,0.015625,-0.046875,0.0078125,0.015625,-0.03125,-0.0078125,0.0078125,-0.023438,0,0,-0.023438,-0.015625,-0.023438,-0.039063,0.015625,-0.0078125,0.0078125,-0.023438,-0.0078125,-0.0078125,0,-0.0078125,0.0078125,0.0078125,-0.015625,-0.015625,-0.0078125,-0.0078125,0.0078125,0.03125,-0.03125,-0.0078125,0,-0.015625,-0.0078125,-0.03125,-0.023438,0.0078125,-0.0078125,0.0078125,-0.0078125,-0.03125,-0.015625,-0.023438,-0.03125,-0.023438,0.0078125,0,0,-0.023438,0.0078125,0,-0.03125,0.0078125,-0.015625,-0.023438,-0.015625,-0.023438,-0.015625,-0.023438,-0.03125
0,-0.0078125,-0.0078125,0.0078125,0.0078125,-0.03125,-0.015625,-0.015625,-0.015625,-0.015625,-0.015625,-0.015625,-0.015625,-0.0078125,-0.0078125,-0.015625,-0.015625,0,0,-0.023438,-0.015625,-0.023438,0,-0.015625,0,-0.023438,-0.0078125,0.0078125,-0.0078125,0.0078125,-0.0078125,-0.023438,-0.015625,-0.015625,-0.0078125,0.023438,-0.015625,0.0078125,-0.0078125,-0.015625,-0.0078125,-0.046875,-0.023438,0,-0.0078125,0.0078125,-0.0078125,-0.015625,-0.015625,0.015625,-0.046875,-0.015625,0.015625,-0.03125,-0.015625,-0.0078125,-0.03125,-0.0078125,0,-0.023438,-0.0078125,0,0.023438,-0.015625,0.015625,-0.046875,-0.015625,-0.0078125,-0.023438,-0.0078125,-0.054688,-0.0078125,-0.070313,-0.0078125,0.023438,-0.023438,0.015625,0.023438,-0.054688,-0.039063,-0.046875,-0.015625,0,-0.015625,0,0.015625,-0.015625,-0.023438,0.0078125,-0.03125,0.023438,0.015625,-0.015625,-0.046875,-0.0625,0,0.023438,0.03125,0,0.015625,-0.03125,0,0.0078125,0,-0.023438,-0.023438,-0.015625,-0.015625,0,-0.03125,-0.0078125,-0.023438,-0.0078125,0.0078125,0,-0.015625,0,0.0078125,-0.023438,-0.015625,0.0078125,-0.015625,0.0078125,-0.015625,-0.0078125,-0.039063,-0.03125,0,-0.0078125,-0.0078125,-0.023438,-0.03125,-0.023438,-0.015625,0,-0.023438,-0.023438,-0.0078125,0,0.015625,-0.015625,-0.015625,-0.0078125,0,-0.015625,0.0078125,-0.039063,0,-0.023438,-0.015625
-0.039063,-0.015625,-0.023438,-0.0078125,-0.015625,-0.015625,0,-0.023438,0,-0.0078125,-0.023438,-0.0078125,-0.0078125,-0.0078125,-0.015625,-0.015625,-0.0078125,-0.0078125,-0.046875,-0.0078125,0,0,-0.023438,0,-0.023438,0,-0.0078125,0.0078125,-0.0078125,-0.015625,-0.0078125,-0.0078125,-0.03125,0.0078125,0,-0.0078125,0.03125,-0.03125,-0.015625,-0.015625,0.015625,0.023438,-0.0078125,-0.03125,-0.023438,-0.015625,-0.0078125,-0.023438,0,-0.015625,-0.0625,-0.03125,-0.023438,-0.023438,0.03125,0.0078125,-0.039063,-0.0078125,0.015625,-0.015625,-0.03125,-0.039063,0.15625,-0.078125,-0.070313,-0.039063,0.015625,-0.015625,0.03125,-0.023438,-0.03125,0.015625,0.015625,-0.039063,-0.015625,-0.03125,-0.015625,0.046875,-0.046875,-0.015625,0.0078125,-0.015625,-0.0625,0.0078125,-0.03125,-0.023438,-0.015625,0.023438,0,-0.023438,-0.03125,0.0078125,-0.015625,0.0078125,-0.0078125,-0.015625,-0.023438,0.023438,-0.039063,-0.023438,-0.015625,0,-0.0078125,0.0078125,0,-0.015625,-0.015625,-0.0078125,0.0078125,-0.0625,-0.0078125,-0.0078125,0.023438,-0.0078125,-0.054688,0.015625,-0.023438,0.0625,-0.09375,-0.023438,-0.023438,-0.023438,0.039063,0,-0.03125,-0.0078125,0.0078125,-0.023438,0.015625,-0.015625,-0.023438,-0.023438,-0.03125,-0.03125,0,-0.015625,-0.0078125,-0.03125,0,-0.015625,-0.0078125,-0.0078125,0.0078125,0,-0.023438,0,-0.023438,-0.023438,-0.023438,-0.023438
0.023438,-0.039063,-0.023438,-0.015625,-0.015625,-0.015625,-0.0078125,0,-0.023438,0,0,0,0.0078125,-0.023438,0.0078125,-0.015625,-0.03125,-0.023438,-0.015625,-0.023438,-0.0078125,-0.023438,0.015625,-0.015625,-0.0078125,-0.0078125,-0.023438,-0.015625,-0.023438,0,0,-0.023438,-0.015625,0,0,0.023438,-0.0078125,-0.0078125,-0.0078125,-0.015625,-0.03125,-0.0078125,-0.023438,-0.0078125,0,0,-0.0078125,-0.015625,-0.0078125,-0.0078125,-0.0078125,-0.0078125,0.0078125,-0.0078125,-0.0078125,0,-0.023438,-0.0078125,-0.039063,0.015625,-0.023438,-0.03125,-0.03125,-0.0078125,0.0078125,-0.03125,0.0078125,-0.0078125,0.015625,0.015625,-0.046875,0,-0.015625,0.0078125,0.0078125,-0.023438,0,-0.015625,-0.023438,-0.03125,-0.015625,0.0078125,0.0078125,-0.054688,-0.0078125,-0.0078125,0.046875,0.039063,-0.03125,-0.03125,-0.023438,0.0078125,-0.015625,-0.0078125,-0.015625,-0.015625,0,-0.0078125,-0.0078125,-0.015625,-0.0078125,0,0,0,-0.015625,-0.03125,-0.0078125,-0.023438,-0.015625,0.0078125,0.0078125,-0.015625,-0.015625,-0.015625,-0.023438,0,-0.0078125,-0.0078125,-0.03125,-0.0078125,-0.015625,-0.015625,0.0078125,-0.0078125,0,-0.039063,0.0078125,-0.015625,0.0078125,0.0078125,-0.03125,-0.023438,-0.0078125,-0.015625,-0.0078125,-0.0078125,-0.03125,-0.0078125,-0.0078125,-0.0078125,0.015625,0.0078125,-0.015625,0.0078125,-0.046875,0,0,-0.023438,-0.015625,-0.023438
-0.015625,-0.023438,0,-0.039063,-0.015625,0,-0.015625,-0.023438,-0.03125,0.015625,-0.015625,0.015625,0,-0.03125,-0.015625,-0.0078125,-0.015625,-0.023438,-0.0078125,0,-0.0078125,-0.0078125,-0.0078125,-0.0078125,-0.023438,0,-0.03125,0,0.0078125,0,0,0,-0.015625,0,-0.0078125,-0.023438,-0.03125,-0.0078125,-0.015625,0,0.0078125,-0.015625,-0.0078125,-0.03125,-0.0078125,-0.015625,0,-0.03125,0,-0.015625,-0.0078125,-0.0078125,0.0078125,0.023438,-0.015625,0,-0.015625,0,0.0078125,-0.0078125,-0.03125,0,0.015625,-0.0078125,0.015625,-0.023438,-0.015625,-0.0078125,0,0.0078125,-0.015625,0.0078125,-0.03125,0.039063,-0.10156,0,-0.0078125,-0.0078125,-0.023438,-0.0625,-0.03125,-0.03125,-0.015625,-0.015625,0.023438,-0.054688,0.03125,0.015625,-0.015625,-0.023438,-0.0078125,-0.0078125,0,-0.03125,0.015625,-0.0078125,-0.023438,-0.015625,0,-0.0078125,-0.0078125,-0.015625,-0.0078125,-0.015625,-0.015625,-0.0078125,-0.0078125,-0.015625,0,0,0,-0.015625,-0.023438,-0.015625,-0.0078125,0,-0.0078125,-0.015625,0,-0.015625,-0.0078125,-0.0078125,-0.0078125,0.0078125,0.0078125,0.0078125,-0.0078125,-0.0078125,-0.015625,-0.015625,-0.03125,0,0,-0.0078125,-0.015625,-0.015625,0.015625,-0.023438,-0.0078125,0,0,-0.0078125,-0.023438,-0.023438,-0.03125,0,-0.015625,-0.023438,-0.015625,-0.023438
-0.023438,-0.015625,-0.015625,0,-0.015625,0.0078125,-0.0078125,-0.015625,-0.015625,0.0078125,0.0078125,-0.023438,0.0078125,-0.015625,0,-0.03125,-0.0078125,-0.015625,-0.046875,-0.0078125,0,-0.015625,0.0078125,-0.0078125,-0.015625,-0.023438,-0.0078125,0.0078125,-0.039063,-0.0078125,0.03125,-0.0078125,-0.023438,-0.0078125,-0.039063,0,0,-0.03125,-0.023438,-0.015625,0,0,-0.015625,-0.023438,0,0,0,0.0078125,-0.023438,-0.015625,-0.03125,-0.015625,-0.03125,-0.03125,-0.0078125,-0.015625,-0.03125,-0.0078125,-0.0078125,-0.015625,-0.015625,-0.015625,-0.015625,-0.023438,0.015625,-0.023438,0,-0.0078125,0.015625,-0.0078125,0,-0.03125,-0.015625,0.03125,0.0078125,-0.039063,0.0078125,-0.023438,0,0.015625,-0.09375,0.0078125,0.0078125,0,0.039063,-0.023438,-0.023438,-0.015625,0.0078125,-0.039063,-0.015625,0.0078125,-0.023438,0.0078125,-0.023438,-0.0078125,0,-0.03125,0.0078125,-0.03125,-0.0078125,0.0078125,-0.039063,0,0,-0.015625,0.0078125,-0.015625,-0.023438,0,-0.023438,0.0078125,-0.015625,0,0,-0.023438,-0.015625,0,-0.0078125,-0.03125,0,0,-0.03125,-0.015625,-0.015625,-0.0078125,0,0,-0.0078125,-0.0078125,-0.015625,-0.023438,-0.0078125,-0.03125,0,0,0,-0.03125,-0.0078125,-0.0078125,-0.039063,-0.015625,-0.0078125,-0.0078125,-0.0078125,-0.0078125,-0.023438,-0.023438,-0.0078125,0
-0.015625,0.0078125,-0.0078125,0,-0.023438,-0.023438,-0.03125,0,-0.015625,-0.015625,-0.046875,-0.0078125,0,-0.0078125,-0.015625,-0.015625,-0.023438,-0.015625,-0.0078125,-0.0078125,0.0078125,-0.015625,-0.015625,-0.0078125,-0.015625,-0.0078125,0,-0.0078125,-0.015625,-0.0078125,-0.015625,0,0,-0.0078125,-0.0078125,-0.023438,0,-0.015625,0,-0.023438,-0.039063,0,-0.0078125,-0.0078125,-0.0078125,-0.015625,0,0,-0.0078125,-0.015625,-0.0078125,-0.023438,-0.023438,-0.03125,0.0078125,0.023438,-0.023438,0,-0.015625,-0.015625,0.0078125,0,-0.03125,0,-0.039063,0.023438,-0.054688,-0.03125,0.015625,-0.015625,0.023438,-0.039063,0,-0.0078125,0,0.015625,0.015625,-0.046875,0,-0.023438,-0.023438,-0.0078125,-0.046875,0,-0.015625,-0.023438,0,-0.046875,-0.015625,-0.0078125,-0.0078125,0.023438,0.0078125,-0.015625,-0.0078125,-0.023438,-0.039063,0.015625,0,-0.03125,0.015625,-0.015625,-0.0078125,-0.0078125,-0.0078125,-0.039063,-0.0078125,-0.0078125,-0.03125,0.0078125,-0.023438,-0.023438,0,-0.03125,-0.015625,0,-0.0078125,0.015625,-0.015625,-0.0078125,0.0078125,-0.015625,-0.015625,0,0.0078125,-0.039063,-0.015625,-0.023438,-0.0078125,0.0078125,-0.015625,-0.023438,-0.015625,-0.0078125,-0.015625,0.015625,-0.023438,-0.0078125,0.015625,0.0078125,-0.0078125,-0.015625,-0.023438,-0.0078125,-0.015625,-0.0078125,-0.015625,-0.015625,-0.0078125,-0.015625
-0.0078125,-0.015625,0,0.0078125,0.015625,-0.03125,-0.0078125,-0.023438,-0.015625,0.0078125,-0.023438,0,-0.0078125,0.0078125,-0.015625,-0.03125,-0.023438,-0.023438,0.0078125,-0.015625,0,-0.015625,0.015625,-0.0078125,-0.0078125,0.015625,-0.039063,-0.015625,-0.015625,-0.023438,0.0078125,0,-0.015625,0,-0.015625,-0.03125,-0.023438,-0.023438,-0.0078125,0.015625,-0.0078125,-0.0078125,-0.015625,-0.0078125,0,-0.0078125,0.03125,-0.03125,0.015625,-0.039063,-0.023438,-0.015625,0.0078125,-0.0078125,-0.015625,-0.0078125,-0.0078125,-0.023438,-0.015625,0,-0.03125,0,-0.015625,-0.015625,0.015625,-0.023438,-0.015625,0.0078125,-0.023438,-0.023438,0.0078125,-0.015625,-0.023438,0.015625,-0.015625,-0.0078125,0.015625,-0.015625,-0.03125,-0.015625,-0.039063,0.015625,-0.023438,0.0625,-0.10156,0.046875,-0.03125,-0.0625,-0.0078125,-0.03125,0.015625,0.0078125,-0.0078125,0.0078125,-0.0078125,-0.039063,-0.0078125,-0.0078125,0.023438,-0.0078125,0.015625,0,-0.015625,-0.03125,0,-0.03125,-0.015625,0.015625,-0.0078125,-0.015625,0,0,0.015625,-0.023438,0.015625,-0.0078125,0,-0.0078125,-0.0078125,-0.023438,-0.0078125,-0.0078125,0,-0.0078125,-0.015625,-0.03125,-0.03125,0.0625,-0.023438,-0.0625,-0.0078125,-0.015625,0.0078125,0.0078125,-0.0078125,-0.015625,0,0,-0.039063,-0.023438,-0.0078125,-0.023438,0,0,-0.03125,-0.015625,0,-0.046875,0.015625,0
-0.015625,-0.0078125,-0.015625,-0.0078125,0,-0.015625,0,-0.015625,-0.0078125,0,-0.0078125,-0.015625,-0.0078125,-0.0078125,-0.015625,0,-0.0078125,0.015625,-0.023438,-0.015625,-0.015625,0,0,-0.03125,-0.023438,-0.03125,-0.0078125,0,-0.015625,-0.023438,-0.0078125,-0.023438,-0.023438,0.0078125,-0.0078125,-0.03125,-0.023438,-0.023438,0,0.015625,0.0078125,-0.03125,-0.03125,0,0,-0.023438,0,-0.039063,0,-0.0078125,0.015625,-0.039063,0.0078125,-0.0078125,-0.03125,-0.039063,-0.015625,0.023438,-0.023438,-0.015625,-0.023438,0,0.015625,0,-0.0078125,0.0078125,-0.015625,0.015625,-0.03125,-0.015625,0.015625,0.0078125,-0.023438,-0.015625,-0.054688,0,-0.0078125,-0.015625,-0.015625,0,-0.015625,0,0.0078125,0,0.0078125,-0.023438,-0.039063,0,-0.0078125,0,0.015625,-0.03125,-0.015625,-0.03125,-0.015625,-0.0078125,-0.0078125,-0.0078125,-0.015625,-0.03125,0,0.0078125,0,-0.015625,-0.03125,-0.03125,0,0,-0.0078125,-0.015625,-0.0078125,-0.015625,-0.023438,-0.0078125,-0.039063,0.015625,-0.023438,-0.023438,0.015625,-0.015625,-0.015625,0,-0.023438,0,0.0078125,-0.0078125,0,-0.046875,0.0078125,0.054688,-0.125,0.03125,-0.10156,0.0078125,0.10938,-0.14844,0.0078125,0.14844,-0.023438,0.0625,0.023438,-0.10938,0.0078125,0,-0.0078125,-0.0625,-0.039063,0.0078125,-0.023438,-0.023438
-0.023438,-0.0078125,-0.023438,-0.015625,-0.0078125,-0.023438,-0.023438,-0.0078125,-0.023438,-0.0078125,-0.0078125,-0.023438,0.0078125,-0.015625,-0.015625,0.015625,-0.0078125,0.0078125,-0.0078125,-0.015625,-0.023438,-0.015625,0,-0.03125,-0.023438,-0.015625,-0.0078125,-0.015625,-0.0078125,-0.039063,-0.0078125,-0.03125,0,-0.03125,-0.0078125,-0.0078125,-0.0078125,0.0078125,0,-0.015625,-0.015625,-0.0078125,-0.0078125,0.0078125,-0.046875,-0.0078125,-0.0078125,-0.0078125,-0.023438,-0.0078125,-0.0078125,0.015625,0,-0.0078125,-0.046875,-0.015625,-0.015625,0.015625,0.0078125,-0.046875,0,-0.0078125,-0.015625,-0.0078125,-0.015625,0.015625,-0.0078125,-0.0078125,-0.015625,-0.023438,0,-0.015625,-0.0078125,-0.023438,0.0078125,0.0078125,0,0.0078125,-0.054688,-0.039063,-0.023438,0.015625,-0.03125,0.023438,0.0078125,0.023438,-0.09375,-0.054688,-0.070313,-0.0078125,0.0625,0.0078125,-0.03125,-0.015625,-0.03125,0,0.023438,-0.046875,0.03125,0.0078125,-0.03125,0,-0.0078125,0,0.015625,-0.03125,-0.015625,-0.015625,0,-0.023438,-0.023438,0.0078125,-0.023438,-0.023438,0.0078125,0,0.015625,-0.015625,-0.015625,0,-0.0078125,-0.03125,-0.0078125,-0.023438,0,-0.015625,0.0078125,-0.03125,-0.0078125,-0.0078125,-0.023438,-0.015625,-0.0078125,-0.0078125,0.0078125,-0.015625,-0.0078125,-0.023438,-0.0078125,-0.03125,-0.0078125,0,-0.0078125,0,-0.015625,0.0078125,-0.0078125,-0.0078125,-0.03125,-0.0078125
0.015625,-0.023438,0.0078125,-0.023438,-0.046875,0,-0.015625,0,-0.03125,-0.015625,-0.0078125,0.0078125,-0.0078125,-0.023438,-0.039063,-0.015625,-0.0078125,0,0,-0.0078125,-0.015625,0,0.0078125,0.0078125,-0.023438,-0.015625,0.015625,-0.039063,0,0.015625,0,0,-0.023438,-0.0078125,-0.03125,-0.015625,0,-0.015625,-0.023438,-0.015625,0,-0.0078125,-0.0078125,-0.0078125,-0.015625,-0.0078125,-0.0078125,-0.03125,-0.023438,-0.023438,-0.0078125,-0.0078125,-0.0078125,-0.0078125,0,-0.0078125,-0.023438,-0.0078125,0.0078125,0.015625,0.015625,-0.023438,-0.039063,0.0078125,-0.0078125,-0.023438,0.0078125,-0.023438,-0.0078125,0.0078125,-0.015625,-0.015625,-0.023438,-0.0078125,-0.023438,0,0,-0.015625,0.015625,-0.015625,-0.015625,-0.0078125,-0.015625,-0.0078125,-0.0078125,-0.0625,-0.023438,0,-0.015625,0,-0.0078125,-0.015625,-0.015625,-0.0078125,-0.0078125,0.0078125,-0.0078125,-0.015625,-0.039063,-0.023438,0,0.023438,0,-0.023438,-0.015625,-0.0078125,-0.0078125,-0.0078125,-0.03125,0.0078125,-0.015625,-0.039063,0,-0.015625,-0.015625,-0.0078125,0.0078125,-0.015625,0,0,0,-0.023438,-0.0078125,0.0078125,0.0078125,-0.046875,-0.023438,0,-0.015625,0,0,-0.023438,-0.015625,-0.0078125,-0.0078125,0.015625,-0.015625,0.015625,0.0078125,-0.015625,-0.023438,-0.015625,-0.023438,-0.015625,-0.0078125,0.015625,0,0,-0.03125,-0.0078125
0,-0.039063,-0.015625,0,-0.015625,0.0078125,-0.023438,0.0078125,0.0078125,-0.0078125,-0.0078125,-0.015625,-0.054688,-0.023438,-0.015625,0,0.0078125,0,-0.015625,-0.0078125,0,0,-0.015625,-0.0078125,-0.0078125,0.015625,0.0078125,-0.023438,-0.023438,-0.03125,-0.015625,-0.015625,-0.015625,-0.03125,0.015625,0.0078125,-0.046875,0.03125,-0.039063,0.054688,-0.015625,-0.0078125,-0.03125,-0.046875,0.0078125,0.0078125,0.0078125,-0.023438,0,-0.0625,0.0078125,-0.03125,-0.023438,0.023438,-0.03125,-0.015625,0.023438,-0.015625,-0.046875,-0.023438,0.0078125,-0.039063,0.015625,0,-0.023438,0.0078125,-0.023438,-0.039063,0,0.015625,0.015625,-0.039063,-0.054688,-0.015625,-0.078125,0.078125,-0.0078125,-0.0625,0.085938,0.0078125,-0.046875,0.10938,0.0078125,-0.25,0.0078125,0.023438,0.046875,0.023438,-0.03125,-0.046875,0,0.039063,-0.0078125,0,-0.054688,-0.0078125,0.023438,-0.070313,-0.015625,0.023438,0.023438,-0.03125,-0.03125,0,-0.015625,-0.039063,-0.0078125,0.023438,0.0078125,-0.023438,-0.023438,-0.0078125,-0.023438,0.0078125,0.015625,0,0,-0.070313,0.09375,-0.078125,-0.11719,0.0078125,-0.023438,0.046875,0.0078125,0,-0.015625,0.039063,-0.015625,-0.023438,-0.0078125,-0.03125,-0.023438,0,-0.023438,-0.039063,0.03125,0.023438,-0.039063,0.015625,-0.0078125,-0.039063,-0.046875,0.015625,-0.023438,-0.03125,0.0078125,-0.023438,0,0.039063
0.0078125,0.039063,-0.046875,-0.039063,-0.03125,0.0078125,0.015625,-0.03125,0.0078125,0.015625,0.0078125,-0.0078125,-0.015625,-0.03125,-0.039063,-0.023438,0.015625,-0.046875,-0.03125,-0.03125,-0.03125,-0.015625,0.023438,-0.0078125,-0.015625,-0.03125,-0.015625,-0.0078125,-0.023438,0,-0.0078125,-0.015625,-0.023438,0,-0.03125,0.015625,-0.0078125,0.0078125,0.0078125,0,0.015625,-0.023438,-0.015625,-0.023438,0,-0.023438,0.015625,0,0.03125,-0.03125,-0.023438,-0.03125,0.0078125,-0.0078125,-0.0078125,0,-0.054688,0.0078125,-0.015625,0.03125,-0.0625,-0.0078125,-0.0078125,-0.015625,-0.015625,0.015625,-0.0078125,0,-0.039063,-0.015625,-0.0078125,0,-0.015625,-0.03125,-0.015625,0,0.023438,-0.015625,0.015625,-0.0078125,-0.046875,0.0078125,0.03125,0,0.039063,-0.0625,0,-0.03125,0.0078125,0.039063,0.015625,-0.046875,0.015625,-0.039063,-0.03125,-0.015625,0.03125,-0.015625,-0.0078125,0,-0.039063,-0.0078125,-0.03125,0,-0.023438,-0.015625,0.0078125,-0.023438,-0.015625,0.046875,-0.046875,-0.039063,-0.0078125,-0.0078125,-0.0078125,0,0.0078125,-0.023438,-0.015625,-0.0078125,-0.015625,0,0,-0.023438,0.0078125,-0.0078125,-0.0078125,0.10156,-0.13281,-0.015625,-0.0625,-0.015625,0.03125,-0.0078125,-0.015625,-0.054688,0.0078125,-0.039063,0.023438,0,-0.0625,0,-0.0078125,-0.015625,0.023438,0.015625,0.0078125,-0.023438,0,-0.03125
-0.023438,0.0078125,0,-0.0078125,0.0078125,-0.0078125,-0.015625,-0.0078125,0.0078125,0.0078125,0,0,-0.0078125,-0.0078125,-0.015625,0.0078125,-0.085938,-0.03125,0,0,0,-0.015625,-0.023438,-0.0078125,0,-0.0078125,0,-0.046875,-0.039063,-0.0078125,-0.0078125,0.023438,0,0.0078125,-0.03125,-0.015625,-0.015625,0,-0.039063,-0.0078125,0.03125,-0.039063,-0.015625,-0.015625,0.0078125,-0.0078125,0.015625,-0.0078125,0.0078125,-0.039063,-0.015625,-0.015625,0.0078125,-0.023438,0.015625,-0.015625,-0.0078125,0,-0.023438,-0.0078125,-0.023438,0.015625,-0.03125,-0.015625,-0.015625,0.015625,-0.015625,0.015625,-0.039063,-0.023438,0.03125,-0.023438,-0.0078125,-0.023438,-0.039063,0.0078125,0.0078125,-0.023438,0.054688,-0.085938,0.0078125,0.039063,-0.078125,0.046875,-0.015625,-0.10938,-0.046875,-0.015625,0.023438,0.046875,-0.085938,-0.023438,-0.0078125,0.023438,0.015625,-0.023438,-0.0078125,-0.054688,0.015625,0.015625,-0.0078125,-0.03125,0.023438,0.0078125,-0.046875,-0.0078125,0.023438,-0.015625,-0.03125,0,-0.0078125,-0.0078125,0,-0.015625,-0.015625,-0.039063,-0.015625,-0.0078125,-0.0078125,0.0078125,-0.03125,-0.015625,-0.054688,0,-0.0078125,-0.0078125,0.0078125,-0.015625,-0.023438,-0.023438,-0.0078125,-0.015625,0.0078125,0.015625,-0.023438,0,-0.0078125,-0.023438,-0.0078125,-0.0078125,0.0078125,-0.015625,0.0078125,-0.046875,-0.039063,0.0078125,0.015625,0,0.0078125,-0.078125
-0.03125,-0.0078125,-0.0078125,0.0078125,0,-0.039063,0.015625,0.023438,0.0078125,-0.039063,0,-0.015625,-0.078125,0.0078125,-0.03125,0.0078125,0.03125,-0.070313,-0.023438,-0.0078125,-0.023438,-0.0078125,0,-0.023438,0.0078125,0.015625,-0.015625,-0.0078125,-0.0078125,-0.015625,-0.023438,-0.03125,0,0.0078125,-0.015625,-0.0078125,-0.023438,-0.015625,0,0.03125,-0.03125,-0.0078125,-0.023438,0,0.023438,-0.046875,-0.023438,-0.015625,-0.0078125,-0.0078125,-0.039063,-0.023438,-0.0078125,0.039063,-0.015625,-0.085938,-0.046875,-0.023438,0.039063,-0.0078125,-0.0078125,0.039063,-0.015625,-0.015625,-0.0078125,-0.015625,0.0078125,0.015625,-0.023438,-0.046875,0.0078125,0.023438,0.015625,-0.015625,-0.046875,-0.0078125,-0.03125,-0.0078125,0,-0.03125,-0.015625,0,-0.015625,0,0.039063,-0.015625,0,-0.085938,-0.015625,0.0078125,0.0078125,0.03125,-0.0078125,-0.023438,-0.0078125,-0.015625,-0.0078125,0.0078125,-0.085938,0.015625,0,-0.0078125,0,0,-0.023438,-0.03125,-0.015625,0,-0.0078125,-0.0078125,0,-0.015625,-0.03125,-0.0078125,0.0078125,-0.0078125,-0.0078125,-0.015625,-0.0078125,0.0078125,-0.015625,0.0078125,0.0078125,-0.015625,-0.039063,0.023438,-0.0078125,0,-0.03125,-0.023438,-0.015625,-0.023438,-0.039063,-0.015625,0,-0.0078125,0,-0.023438,0,0.03125,-0.039063,-0.0078125,-0.023438,-0.0078125,0.023438,-0.0078125,-0.023438,-0.023438,0.015625,-0.015625
-0.023438,-0.0078125,0,-0.0078125,0.015625,0.015625,0.0078125,-0.054688,-0.023438,-0.023438,0,0,0.0078125,-0.0078125,0,-0.023438,-0.023438,0,-0.039063,-0.0078125,-0.0078125,0.015625,-0.0078125,-0.03125,-0.015625,-0.0078125,0.0078125,0.0078125,-0.03125,-0.015625,-0.0078125,0.0078125,-0.0078125,-0.023438,0,-0.015625,0.015625,-0.046875,-0.023438,-0.015625,0.0078125,-0.0078125,-0.015625,0.015625,-0.03125,-0.023438,0.015625,0,-0.0078125,-0.023438,0,-0.015625,0.015625,-0.039063,0,-0.0078125,0.039063,-0.046875,-0.015625,-0.015625,0.03125,-0.015625,-0.0078125,-0.023438,0.023438,-0.13281,-0.015625,0.015625,-0.03125,0.070313,-0.0078125,-0.03125,-0.03125,0.03125,-0.03125,0,-0.023438,-0.0078125,0,-0.023438,-0.0625,0.0625,0.039063,0,-0.17969,0.046875,-0.046875,0.078125,0,-0.054688,-0.015625,-0.039063,0.039063,-0.023438,-0.015625,0.015625,0,-0.0078125,-0.046875,-0.023438,0.0078125,0.0078125,-0.023438,-0.03125,-0.015625,-0.015625,0.0078125,-0.015625,0,-0.0078125,0.015625,-0.046875,0.015625,0,-0.023438,-0.023438,-0.0078125,0.039063,-0.03125,-0.070313,-0.023438,-0.0078125,0.015625,0.0078125,-0.023438,0.015625,-0.023438,0.015625,0.0078125,-0.03125,-0.03125,-0.03125,-0.0078125,-0.015625,0,-0.015625,-0.023438,-0.03125,0.0078125,0.046875,-0.03125,-0.03125,-0.03125,0,0.0625,-0.046875,-0.0078125,-0.015625,-0.023438,0
-0.023438,-0.015625,0.015625,-0.015625,-0.015625,-0.0078125,-0.023438,-0.0078125,-0.03125,0,-0.0078125,-0.0078125,0.015625,-0.070313,-0.015625,0.015625,0,0.03125,-0.0078125,-0.015625,-0.046875,-0.046875,-0.039063,0,0.0078125,0,0.0078125,-0.0078125,0,0.0078125,-0.0625,-0.03125,0,0.0078125,0.023438,-0.0078125,-0.0078125,-0.03125,0.0078125,0.0078125,0.015625,-0.0078125,-0.0078125,-0.0078125,-0.023438,0,0.0078125,0,-0.039063,-0.03125,-0.015625,-0.0078125,-0.023438,-0.0078125,0,-0.039063,0.015625,-0.023438,-0.039063,0.023438,0.0078125,0.0078125,0.0078125,-0.015625,0,-0.03125,0,0.023438,-0.0625,0.023438,-0.039063,-0.11719,0.023438,0.015625,0.03125,0.03125,-0.023438,0,0.046875,-0.03125,-0.015625,0.015625,-0.0078125,-0.023438,0.023438,-0.054688,-0.015625,0,0,0,0.015625,-0.0078125,-0.0625,-0.015625,-0.023438,0.0078125,-0.015625,-0.0078125,-0.0078125,0.015625,-0.0625,0.0078125,-0.054688,-0.0078125,0.0078125,0.015625,0,0,0.0078125,-0.023438,-0.015625,-0.0078125,-0.0078125,-0.015625,-0.0078125,-0.023438,-0.023438,-0.015625,-0.0078125,0.015625,-0.0078125,-0.023438,0,-0.054688,0.03125,0,-0.039063,-0.0078125,-0.015625,-0.015625,-0.0078125,-0.023438,0.0078125,-0.015625,0.0078125,-0.015625,-0.023438,-0.039063,-0.0078125,0.015625,0,-0.03125,-0.0078125,-0.0078125,-0.023438,0.0078125,-0.015625,-0.015625,-0.015625,-0.0078125
-0.0078125,-0.015625,-0.0078125,-0.0078125,0,-0.015625,-0.039063,0,-0.0078125,-0.023438,0.0078125,0,0.0078125,-0.0625,-0.0078125,-0.023438,-0.0078125,0,-0.0078125,-0.023438,-0.015625,-0.0078125,0,-0.015625,-0.03125,0,0.0078125,0.0078125,0,-0.023438,0,0.0078125,-0.023438,-0.0078125,0,-0.03125,-0.0078125,0.023438,-0.0078125,-0.023438,-0.023438,-0.03125,0.0078125,-0.015625,-0.023438,0.0078125,-0.03125,0,0,0.0078125,-0.039063,-0.023438,0,0,0.0078125,-0.015625,0.023438,0.015625,-0.078125,-0.023438,-0.023438,0,0.039063,0.0078125,0.023438,-0.09375,0.054688,-0.085938,0.023438,-0.0078125,-0.03125,0.054688,0.023438,-0.039063,0.023438,0.0078125,-0.078125,0,-0.039063,-0.0078125,-0.023438,0.015625,0.0078125,0.0078125,-0.054688,-0.0078125,0,-0.0078125,0.0078125,-0.0078125,-0.015625,0.023438,-0.03125,-0.046875,-0.03125,-0.023438,0.03125,0,0.0078125,0.015625,-0.0078125,0,-0.015625,-0.0078125,-0.039063,-0.015625,-0.023438,-0.039063,0.015625,0,-0.046875,0.0078125,-0.054688,-0.015625,-0.015625,0,0.023438,-0.015625,-0.0078125,-0.015625,-0.015625,0,0,-0.015625,0,0,-0.0078125,-0.039063,-0.023438,-0.0078125,0.0078125,-0.023438,-0.0078125,-0.0078125,0.015625,-0.015625,0.0078125,-0.03125,-0.039063,0,-0.015625,-0.015625,0,0.0078125,-0.023438,0,-0.015625,-0.015625,-0.015625,0
0.023438,-0.03125,-0.023438,-0.015625,-0.015625,-0.0078125,-0.0078125,0.015625,-0.0078125,0.023438,-0.023438,-0.015625,-0.023438,-0.015625,-0.015625,0.015625,-0.015625,-0.023438,-0.0078125,-0.015625,0,0.0078125,-0.0078125,-0.023438,-0.0078125,0,-0.015625,-0.0625,0.0078125,-0.015625,-0.0078125,-0.0078125,-0.023438,-0.015625,0.0078125,-0.015625,-0.023438,0.0078125,-0.023438,0.0078125,0.0078125,-0.039063,-0.03125,-0.023438,-0.0078125,-0.0078125,-0.0078125,0.023438,0.0078125,0.0078125,-0.054688,-0.023438,-0.015625,0,0,-0.0078125,-0.0078125,-0.03125,-0.0078125,0.0078125,0.023438,-0.054688,-0.054688,-0.039063,0.039063,0.015625,-0.015625,-0.0078125,-0.046875,0.039063,0.0078125,-0.078125,-0.070313,-0.015625,0.03125,0.023438,-0.015625,0,-0.015625,0.023438,-0.0078125,-0.03125,-0.023438,-0.0078125,-0.03125,-0.0078125,0,-0.023438,-0.0078125,0.039063,-0.054688,0,-0.0078125,-0.03125,0.046875,0,-0.0078125,-0.0078125,-0.03125,-0.023438,0,-0.039063,0.0078125,0,-0.0078125,0,-0.046875,-0.0078125,-0.0078125,-0.023438,0.0078125,-0.015625,-0.0078125,-0.046875,-0.023438,0.0078125,-0.023438,-0.015625,-0.023438,-0.015625,-0.0078125,0.039063,-0.015625,-0.046875,0,0,-0.0078125,0,-0.03125,-0.015625,0.03125,-0.023438,-0.015625,-0.015625,-0.015625,0.0078125,-0.0078125,-0.039063,-0.0078125,-0.023438,-0.0078125,-0.015625,0,-0.0078125,-0.03125,-0.03125,-0.023438,0,-0.0078125,-0.03125
0,-0.03125,0,-0.03125,0.015625,0.0078125,-0.015625,-0.023438,0,-0.015625,0.0078125,0,-0.015625,-0.0078125,0.0078125,-0.015625,-0.03125,0.0078125,0.0078125,0,-0.0078125,-0.015625,0,-0.023438,-0.03125,0,-0.0078125,0.0078125,-0.0078125,0.0078125,-0.015625,-0.0078125,-0.023438,-0.0078125,-0.015625,-0.03125,0,-0.0078125,0,-0.023438,0.0078125,-0.023438,-0.015625,-0.015625,-0.0078125,0.015625,-0.039063,-0.015625,-0.0078125,0.0078125,0.0078125,0,-0.0078125,0,0.0078125,-0.015625,0.0078125,-0.0078125,0,-0.015625,-0.0078125,-0.023438,-0.0078125,-0.0078125,-0.03125,-0.0078125,-0.0078125,0,0,-0.039063,0,0.015625,-0.023438,-0.015625,-0.023438,0.0078125,0.03125,0,0.023438,-0.10156,0.0078125,-0.03125,-0.0625,0.023438,-0.046875,0,-0.0078125,-0.023438,-0.0078125,0.023438,-0.03125,-0.0078125,0.015625,-0.039063,-0.039063,0.046875,-0.046875,-0.03125,-0.023438,0.015625,-0.0078125,0.0078125,0.0078125,-0.015625,-0.015625,-0.015625,-0.0078125,0,-0.015625,0.023438,-0.023438,-0.03125,-0.015625,0,0,-0.039063,-0.015625,-0.03125,0.0078125,-0.015625,0,-0.015625,0,0.0078125,-0.03125,-0.0078125,-0.023438,-0.023438,-0.0078125,-0.015625,0,-0.023438,-0.0078125,0.015625,-0.03125,-0.023438,-0.0078125,-0.015625,0,0.0078125,0,0.015625,-0.023438,-0.015625,-0.015625,-0.0078125,0.015625,0.0078125,0,-0.03125
0.0078125,-0.0078125,-0.039063,0.0078125,-0.015625,-0.0078125,0,-0.023438,-0.023438,0,-0.015625,-0.015625,0,-0.0078125,-0.023438,0.0078125,0,-0.039063,-0.0078125,-0.03125,-0.0078125,0.023438,0.046875,-0.054688,-0.054688,-0.0078125,0,0.0078125,-0.015625,-0.03125,0,-0.015625,-0.046875,-0.015625,-0.015625,0,0,0.015625,-0.0078125,-0.03125,0.023438,0.039063,-0.015625,-0.085938,-0.023438,-0.046875,0.03125,0.039063,-0.03125,-0.0078125,0.015625,-0.039063,0.023438,-0.0078125,-0.078125,0.015625,0.023438,0.0078125,-0.054688,0.023438,-0.023438,-0.015625,-0.023438,0.0078125,-0.0078125,-0.023438,-0.0078125,0.023438,-0.023438,-0.0078125,-0.0078125,0.023438,-0.03125,-0.015625,-0.039063,-0.0078125,-0.015625,0.0078125,0.078125,-0.070313,0.03125,-0.078125,-0.046875,-0.0078125,0.015625,0.054688,0,-0.046875,-0.046875,0,0,-0.039063,-0.015625,-0.046875,0.023438,-0.070313,-0.046875,-0.0078125,-0.015625,0.054688,-0.0078125,0.0078125,-0.046875,0,-0.0078125,-0.015625,0,-0.0078125,0.0078125,0.0078125,-0.039063,0,0,-0.015625,-0.023438,0.0078125,-0.0078125,-0.03125,-0.0078125,0,-0.0078125,-0.015625,-0.015625,0.0078125,-0.015625,-0.015625,0.0078125,-0.015625,-0.03125,-0.015625,-0.0078125,-0.015625,0.023438,-0.070313,0,-0.015625,-0.015625,0.03125,-0.046875,0.0078125,-0.015625,-0.023438,-0.0078125,0,-0.0078125,0.0078125,-0.0078125,-0.023438,0,-0.015625
-0.0078125,-0.0078125,-0.0078125,-0.023438,-0.023438,0,0,-0.0078125,-0.015625,0.0078125,-0.03125,0.0078125,-0.023438,-0.039063,0,0,0.0078125,0.015625,-0.03125,-0.015625,-0.015625,-0.015625,0.046875,-0.0625,0,-0.023438,-0.0078125,0,-0.0078125,-0.0078125,0.039063,-0.085938,-0.0078125,0,-0.0078125,0.015625,-0.015625,-0.0078125,0.03125,-0.070313,-0.023438,0,-0.078125,0.039063,-0.015625,-0.023438,-0.0078125,0.03125,-0.03125,-0.015625,0,-0.046875,0.039063,0.0078125,-0.039063,0.054688,-0.11719,0,-0.03125,0,0.03125,-0.023438,-0.0078125,-0.015625,0.0078125,-0.023438,0.0078125,0.023438,-0.015625,-0.023438,-0.046875,-0.015625,-0.015625,0.015625,-0.046875,-0.015625,0.03125,-0.039063,0.03125,-0.0625,0.015625,0,0.015625,-0.023438,0.046875,-0.078125,-0.078125,0.0078125,-0.023438,0.039063,-0.039063,0.023438,-0.039063,0.039063,-0.078125,-0.054688,-0.023438,-0.0078125,0.03125,0.015625,-0.015625,-0.023438,0.023438,0,-0.023438,-0.0078125,0.0078125,-0.0078125,0,-0.023438,-0.0078125,-0.03125,-0.0078125,-0.039063,-0.0078125,0,-0.015625,-0.023438,-0.015625,-0.0078125,-0.023438,-0.015625,0,0.015625,0.015625,-0.0078125,0,-0.0078125,-0.039063,0,0.0078125,0.0078125,0.03125,-0.054688,-0.039063,-0.023438,-0.023438,0.03125,-0.0078125,-0.03125,-0.0078125,-0.0078125,-0.015625,-0.023438,-0.015625,-0.015625,-0.015625,-0.0078125,0,-0.0078125
-0.0625,-0.0078125,-0.023438,0.015625,0,-0.015625,-0.03125,-0.03125,-0.023438,0.046875,0,-0.09375,-0.03125,0.0078125,0.023438,0.0078125,0,-0.023438,0.015625,-0.015625,-0.015625,0,0.0078125,-0.0625,0.015625,-0.046875,0.0078125,-0.015625,-0.03125,0,-0.039063,0.015625,0.0625,-0.09375,-0.03125,-0.015625,0,0.0625,-0.03125,-0.039063,0.015625,-0.03125,-0.023438,0.0078125,0.0078125,-0.054688,-0.0078125,0.015625,-0.054688,0.0078125,0,-0.03125,-0.023438,0.0078125,-0.0078125,-0.03125,-0.0078125,0.0078125,-0.0078125,-0.023438,-0.023438,0.015625,-0.015625,0.046875,-0.070313,0,-0.015625,-0.054688,0.0078125,-0.039063,0,-0.0078125,0.015625,0,0.0078125,0.0078125,-0.078125,0,-0.03125,-0.0078125,0.015625,0.0078125,-0.0078125,0.015625,0,0.0078125,0.078125,-0.13281,0.0078125,-0.046875,-0.015625,0.046875,-0.046875,-0.023438,-0.023438,0.023438,0,0.046875,-0.054688,-0.023438,0.03125,-0.10938,-0.023438,0.015625,0.0078125,-0.015625,-0.023438,0,0,0.015625,-0.0625,0,-0.070313,0,0.03125,0.0078125,-0.0078125,0.0078125,-0.0078125,-0.023438,-0.015625,-0.0078125,-0.0078125,-0.0078125,-0.0078125,0,-0.015625,0.015625,-0.0078125,0,0,-0.0078125,-0.015625,-0.0078125,-0.023438,-0.023438,-0.015625,-0.0078125,0.046875,-0.14063,0,-0.023438,0.023438,0.054688,-0.039063,-0.0078125,-0.023438,-0.023438,-0.015625,0.0078125
-0.03125,0.0078125,0.0078125,-0.023438,-0.023438,-0.015625,0.039063,-0.070313,-0.015625,-0.039063,0.0078125,0.054688,-0.015625,-0.046875,-0.023438,-0.03125,0.039063,0.0625,-0.070313,0,-0.03125,-0.023438,-0.015625,0,-0.015625,-0.0078125,0,-0.023438,-0.0078125,-0.015625,0.015625,-0.023438,-0.0625,0,-0.015625,0.0078125,0.015625,-0.015625,-0.046875,-0.0078125,-0.0078125,-0.015625,-0.023438,0,-0.03125,0,0.070313,-0.16406,0.03125,-0.054688,0.015625,0.054688,0.0078125,0,-0.03125,0.015625,-0.03125,0.023438,-0.0078125,0,0.023438,-0.039063,-0.015625,0.03125,-0.0078125,0.0078125,-0.039063,0.03125,0,-0.015625,0.015625,-0.023438,-0.03125,-0.046875,0.039063,0.023438,-0.13281,0,-0.039063,0.039063,0.023438,0,-0.03125,-0.039063,0,-0.0078125,0.0078125,0,-0.085938,-0.0078125,0.039063,-0.054688,0.015625,0.023438,-0.070313,-0.023438,0.039063,-0.039063,0,0.0078125,0.0078125,0.0078125,-0.03125,-0.03125,-0.015625,-0.03125,-0.03125,-0.023438,0.0078125,-0.015625,-0.023438,-0.046875,0,0,0,0.0078125,-0.0078125,-0.015625,-0.0078125,-0.015625,0,0,-0.0078125,-0.039063,0,0.0078125,-0.0078125,0.046875,-0.0625,-0.039063,-0.03125,0.039063,0.015625,-0.078125,-0.023438,-0.0078125,0.046875,-0.0078125,-0.03125,-0.0078125,-0.0078125,-0.0078125,-0.03125,-0.0078125,-0.03125,0.0078125,0.023438,-0.03125,-0.015625,0.0078125
-0.046875,0.015625,0,-0.023438,0.023438,-0.03125,-0.0078125,0.0078125,-0.023438,-0.03125,0,-0.015625,-0.015625,-0.0078125,-0.015625,0,-0.0078125,-0.015625,0.0078125,-0.015625,-0.015625,-0.0078125,-0.0078125,-0.023438,-0.015625,0,0.0078125,-0.046875,0,0.0078125,-0.015625,-0.0078125,-0.0078125,-0.015625,-0.039063,0.015625,-0.054688,0.0078125,-0.015625,-0.015625,-0.023438,0.0078125,0.03125,-0.046875,-0.039063,-0.09375,0.015625,0.015625,0.023438,-0.03125,0.0078125,-0.054688,-0.023438,0.015625,-0.078125,0,-0.0078125,-0.054688,-0.015625,0,0.023438,0.0078125,-0.023438,-0.03125,-0.0078125,0.015625,-0.0078125,0.015625,0,-0.0078125,0.0078125,-0.070313,0,-0.015625,0.0078125,0.03125,-0.015625,0,-0.03125,0.03125,-0.046875,0,-0.0078125,-0.054688,0.03125,0.054688,-0.09375,-0.0078125,-0.023438,0.023438,0,0,-0.039063,-0.023438,0.015625,0.023438,0.015625,-0.0078125,-0.13281,-0.0078125,0.03125,0.054688,-0.09375,-0.03125,-0.03125,-0.03125,0.09375,-0.015625,-0.0078125,-0.046875,0.023438,0,0,-0.03125,-0.015625,-0.015625,-0.0078125,-0.046875,0.03125,0,-0.015625,-0.023438,0.015625,-0.015625,0,-0.0078125,0.0078125,-0.015625,-0.046875,-0.0078125,0.0078125,0.015625,-0.046875,0.015625,-0.09375,0,0.0078125,0,0.015625,-0.023438,-0.023438,-0.0078125,0.0078125,-0.039063,0.023438,-0.039063,0.023438,0,-0.015625,-0.03125
0.0078125,-0.03125,-0.023438,0,0.015625,-0.015625,-0.039063,-0.0078125,0,-0.023438,0.14063,-0.22656,0,0,0.023438,0.023438,-0.015625,-0.039063,-0.0078125,0.015625,-0.015625,0.023438,-0.078125,0,0.03125,-0.015625,-0.015625,0.015625,0,-0.015625,0.015625,0,-0.015625,-0.14063,-0.039063,0.023438,0,0.039063,-0.054688,-0.046875,-0.03125,0.0078125,-0.023438,0.023438,-0.015625,0,-0.015625,0.03125,0,-0.023438,0,0.023438,-0.03125,0.023438,0.078125,-0.13281,0.015625,-0.0078125,-0.070313,0.03125,0,-0.046875,0,-0.03125,-0.03125,0.015625,0.0078125,0.046875,-0.0625,-0.0625,-0.015625,0.023438,-0.0078125,-0.046875,-0.015625,0.015625,0,-0.0078125,-0.046875,0,-0.015625,0.023438,0.015625,-0.015625,0,-0.015625,-0.015625,-0.0078125,-0.023438,0.0078125,0,-0.0078125,-0.10938,0.0625,-0.09375,0.039063,0.0078125,-0.015625,-0.015625,-0.015625,0.0078125,-0.0078125,0,-0.039063,-0.0078125,-0.0078125,0.0078125,-0.046875,0.0078125,-0.03125,0,0.0625,0.0625,-0.23438,0.023438,-0.015625,0.046875,0.054688,-0.0078125,-0.023438,0,0.0078125,-0.03125,-0.015625,-0.039063,0.0078125,0.015625,-0.023438,-0.039063,0.054688,-0.039063,0.0625,-0.09375,0.015625,-0.070313,-0.046875,0.0625,0,0,-0.0078125,-0.039063,-0.023438,0,-0.0078125,0,0.039063,-0.039063,-0.023438,-0.039063,0
0.0078125,-0.046875,-0.015625,-0.0078125,-0.023438,0.0078125,-0.015625,-0.039063,0.023438,0.0078125,-0.0078125,-0.015625,0.0078125,0,-0.039063,-0.078125,-0.015625,0,0.0625,0.054688,-0.14844,-0.015625,-0.054688,0.054688,0.039063,-0.03125,-0.015625,0.0078125,0.023438,-0.023438,-0.015625,-0.015625,0,0.0078125,-0.046875,-0.0078125,-0.054688,0.023438,0,-0.023438,0.039063,-0.039063,0.0078125,-0.015625,-0.015625,-0.0078125,0.085938,-0.078125,-0.054688,0.0078125,-0.015625,0.0078125,0.0078125,-0.023438,0.015625,0,-0.015625,0.015625,0.015625,-0.09375,0.023438,0.039063,-0.13281,0.046875,0.03125,-0.03125,0.03125,-0.015625,0,-0.0078125,-0.015625,-0.015625,-0.023438,0.015625,-0.03125,-0.03125,0.03125,-0.023438,-0.03125,0.0078125,-0.03125,-0.039063,-0.023438,0.039063,0,-0.09375,-0.015625,-0.015625,0.039063,0.046875,-0.0625,0.015625,-0.0625,0.015625,0.0078125,-0.078125,0.0078125,-0.0078125,0.070313,-0.054688,-0.0078125,-0.039063,-0.015625,0.015625,-0.023438,-0.015625,-0.015625,-0.0078125,0,0,-0.054688,0.0078125,0,0,-0.0078125,0,0,-0.0078125,0,0,-0.054688,-0.023438,-0.03125,-0.0078125,0.015625,-0.0078125,-0.015625,0.0078125,-0.023438,-0.023438,0.015625,-0.039063,0.046875,-0.070313,0.046875,-0.10938,0.0078125,-0.0078125,-0.0078125,0.0078125,-0.023438,0.0078125,-0.039063,0.0078125,-0.023438,0.015625,-0.03125,0.0078125,0.015625,-0.015625
-0.023438,0,-0.054688,0.015625,-0.0078125,0.015625,-0.015625,-0.039063,-0.0078125,-0.0078125,0.0078125,-0.015625,-0.023438,-0.023438,0.015625,-0.023438,-0.023438,0.039063,-0.039063,-0.039063,-0.0078125,-0.039063,0.054688,0.0078125,-0.0078125,-0.015625,0,-0.015625,-0.03125,-0.023438,-0.015625,-0.015625,0.0078125,-0.023438,-0.0078125,0.0078125,0,-0.046875,0,-0.0078125,-0.0078125,0.078125,-0.078125,0,-0.0625,-0.0078125,0.015625,0,0,0,-0.023438,-0.023438,0.054688,-0.070313,-0.0078125,0.0078125,0.015625,-0.039063,0.015625,-0.046875,0.015625,0,0,-0.0078125,-0.015625,-0.046875,-0.046875,-0.03125,0,0.015625,0.10156,-0.054688,-0.078125,0.015625,-0.054688,-0.015625,0.0078125,-0.0078125,-0.039063,0.03125,-0.039063,-0.015625,-0.023438,0.023438,-0.039063,0.0078125,-0.03125,0.0078125,0,-0.0078125,-0.0078125,-0.023438,0.023438,-0.039063,0.015625,0.023438,-0.046875,0.015625,-0.046875,-0.03125,-0.046875,-0.015625,-0.0078125,0.023438,0.03125,-0.0078125,-0.0078125,-0.046875,0,-0.0078125,-0.0078125,0,-0.03125,-0.0078125,0.0078125,-0.03125,0,-0.0078125,0,-0.015625,-0.0078125,-0.0078125,0.0078125,-0.023438,0,-0.015625,-0.015625,-0.015625,-0.0078125,-0.015625,-0.0078125,-0.023438,-0.03125,-0.015625,0.0078125,0,-0.023438,-0.0625,-0.023438,-0.0078125,0.015625,0,0.023438,-0.070313,-0.023438,0,-0.0078125,0.0078125,0.0078125,-0.0078125
-0.0078125,-0.023438,0,-0.03125,-0.015625,-0.039063,-0.078125,0.03125,0.054688,-0.070313,0.0078125,-0.03125,-0.023438,0.039063,-0.0078125,-0.0078125,-0.023438,0.015625,-0.0078125,-0.015625,-0.03125,-0.0078125,0,0,-0.039063,0,-0.023438,-0.0078125,-0.023438,-0.015625,0.0078125,-0.054688,-0.03125,0.0078125,-0.015625,-0.023438,0.023438,-0.015625,0.0078125,0.0078125,-0.023438,0.046875,-0.039063,-0.039063,-0.070313,0.0078125,0.023438,0.015625,0.0078125,0.0078125,-0.039063,0,0,-0.03125,-0.0078125,-0.0078125,-0.015625,-0.015625,-0.015625,0.023438,-0.03125,0,-0.03125,0.0078125,0.023438,-0.023438,0.039063,-0.0625,-0.03125,-0.015625,0.0078125,-0.03125,-0.09375,0.015625,-0.023438,0.023438,0.0078125,-0.03125,-0.0078125,0.0078125,0.039063,-0.023438,-0.03125,-0.0078125,0.0078125,-0.039063,-0.039063,0,0.015625,-0.039063,-0.0625,-0.015625,-0.015625,-0.0078125,0.070313,-0.023438,-0.10938,0.015625,0,0.039063,0.054688,-0.023438,0.0078125,-0.03125,-0.015625,0,0,-0.039063,-0.015625,0,-0.015625,-0.015625,0.0078125,-0.023438,-0.03125,-0.015625,0.015625,-0.015625,0,-0.015625,-0.023438,-0.023438,0,0,0.0078125,-0.03125,0.039063,-0.085938,-0.023438,0.015625,-0.023438,0.015625,0.0078125,0.0078125,-0.023438,0,-0.0078125,0,-0.015625,-0.0078125,-0.023438,-0.0078125,-0.03125,0,0.015625,-0.015625,-0.054688,0,-0.0078125,0.0078125
0.015625,-0.023438,-0.03125,-0.015625,0.023438,-0.039063,-0.0078125,0.0078125,-0.054688,0.015625,-0.015625,0.0078125,0.0078125,-0.015625,-0.0078125,0.015625,-0.0078125,-0.10156,-0.0078125,-0.03125,0.023438,0.03125,-0.0625,0.015625,0,0.015625,-0.015625,-0.0078125,-0.015625,-0.015625,0,0,0,0.015625,-0.015625,-0.023438,-0.03125,0.03125,-0.023438,-0.039063,0.03125,0.046875,-0.078125,0,-0.023438,0.046875,-0.039063,-0.015625,-0.03125,-0.015625,0.039063,-0.015625,-0.0078125,0.0078125,-0.0078125,-0.023438,-0.0078125,-0.039063,0.015625,0.0078125,-0.046875,-0.046875,-0.03125,-0.0078125,0.0078125,-0.023438,0,-0.0078125,-0.054688,-0.015625,-0.0078125,0.0078125,0.023438,-0.070313,0.0078125,0.085938,-0.039063,-0.085938,0,-0.0078125,0.0078125,0.015625,0.0078125,-0.054688,-0.03125,-0.039063,0.03125,-0.039063,0.0078125,-0.015625,0.023438,-0.039063,0,0.015625,-0.046875,-0.015625,-0.039063,0.03125,-0.039063,-0.023438,0.015625,-0.023438,-0.039063,-0.015625,-0.015625,0,0.015625,-0.0625,-0.0078125,-0.0078125,0.0078125,0.054688,-0.070313,-0.023438,-0.023438,0,0.023438,0.0078125,-0.0078125,0,0.023438,-0.039063,-0.0078125,0,-0.015625,-0.0078125,-0.0078125,0.0078125,-0.023438,0.015625,0.03125,-0.11719,-0.015625,0.015625,-0.0078125,0.03125,-0.015625,-0.023438,0.0078125,-0.046875,-0.03125,0.0078125,-0.03125,0.015625,0,0.0078125,-0.015625,-0.023438,0.0078125,-0.023438
0.023438,-0.0078125,0,-0.023438,-0.023438,-0.015625,0.0078125,0,-0.015625,-0.023438,-0.015625,-0.023438,0,0.023438,-0.023438,-0.023438,-0.03125,0.039063,-0.023438,-0.046875,-0.023438,0,-0.0078125,0.070313,-0.0625,-0.085938,-0.015625,-0.03125,0.023438,0.015625,-0.0078125,0.015625,-0.015625,-0.03125,-0.023438,0,-0.023438,0,0.0078125,-0.0078125,-0.023438,0.0078125,-0.015625,-0.03125,-0.0078125,0.015625,0,-0.0625,-0.015625,0,-0.039063,0.15625,-0.023438,0,-0.054688,0.046875,0.0078125,-0.0625,0.10938,-0.039063,-0.070313,-0.023438,0,-0.078125,-0.03125,0.046875,0.0078125,-0.10938,0.046875,-0.0078125,0.03125,-0.085938,-0.0078125,0.015625,-0.039063,0.03125,0,-0.039063,-0.023438,-0.015625,0.0625,0.015625,-0.17188,0.0078125,-0.023438,0.015625,0.015625,0,-0.023438,-0.015625,0.0078125,-0.046875,-0.046875,-0.039063,0.03125,0.015625,-0.015625,-0.03125,-0.0078125,0,0.015625,-0.0078125,-0.015625,-0.03125,-0.015625,-0.03125,0.015625,-0.023438,-0.0078125,0.0078125,0.0078125,0,-0.070313,-0.023438,0.0078125,0.039063,-0.054688,-0.023438,-0.0078125,0,0,-0.039063,-0.015625,-0.023438,0.085938,-0.09375,0,-0.015625,0,0.03125,-0.085938,-0.023438,-0.015625,0.03125,0.023438,0.039063,-0.054688,-0.03125,-0.023438,-0.023438,0.015625,0,0.0078125,-0.015625,-0.0078125,-0.0078125,-0.015625,-0.03125,-0.015625,0.0078125
0,0.0078125,0.0078125,-0.023438,-0.015625,0,-0.0078125,-0.0078125,-0.015625,-0.03125,-0.015625,-0.015625,-0.0078125,-0.0078125,0.046875,-0.046875,-0.078125,-0.0078125,-0.046875,0.046875,0.046875,-0.054688,-0.0078125,-0.023438,-0.0078125,-0.0078125,-0.0078125,-0.015625,-0.015625,0.023438,-0.046875,-0.015625,-0.039063,0.015625,-0.054688,0.0078125,0.015625,-0.03125,0.0078125,-0.0078125,0.023438,-0.039063,0,-0.015625,-0.015625,-0.015625,0,-0.015625,0,-0.015625,-0.015625,-0.023438,-0.015625,0.015625,-0.0078125,-0.023438,0.015625,-0.039063,-0.015625,-0.046875,-0.0078125,0.0078125,-0.023438,0.0078125,-0.070313,0.023438,0.023438,0,-0.0078125,-0.0078125,-0.0078125,0.0078125,-0.0078125,-0.070313,-0.0078125,-0.023438,-0.039063,-0.0078125,-0.015625,-0.023438,0.03125,-0.023438,-0.0078125,-0.023438,0,0.039063,-0.046875,-0.039063,-0.0078125,0.0078125,0.023438,0.0078125,0,0,-0.0078125,-0.0625,0.015625,-0.03125,-0.015625,0.023438,0.0078125,-0.03125,0.0078125,-0.023438,-0.03125,-0.023438,-0.085938,0,-0.023438,0.0078125,0.0078125,-0.015625,-0.015625,-0.0078125,-0.0078125,0,0,-0.015625,-0.0078125,0,-0.0078125,-0.015625,-0.015625,-0.0078125,0,-0.0078125,-0.015625,-0.03125,-0.039063,-0.0078125,0.0078125,-0.0078125,0.0078125,-0.046875,0.015625,0,-0.03125,-0.03125,-0.015625,-0.015625,0.0078125,0.015625,-0.054688,-0.0078125,0,0,0,0.0078125,-0.015625,0
-0.0078125,0.023438,-0.03125,-0.023438,0.0078125,-0.015625,0.0078125,-0.023438,-0.03125,-0.015625,-0.03125,-0.0078125,-0.015625,0.015625,-0.0078125,-0.015625,0,-0.015625,-0.015625,0.023438,0,-0.039063,0.015625,0,-0.085938,0.0078125,-0.054688,0.015625,0.023438,-0.0078125,-0.0078125,-0.070313,-0.0078125,0.0078125,0.023438,0.0078125,-0.015625,-0.023438,-0.0078125,-0.03125,0.03125,-0.015625,-0.015625,0,-0.023438,-0.039063,-0.023438,-0.015625,0.015625,-0.0078125,0.0078125,-0.023438,-0.023438,-0.015625,-0.03125,0,0.015625,0,0.054688,0.039063,-0.078125,-0.054688,-0.039063,0.023438,0.0625,0.023438,-0.070313,0.0078125,-0.070313,-0.015625,0.015625,-0.046875,-0.03125,0.015625,0.015625,-0.046875,-0.03125,-0.015625,0.023438,-0.023438,0.0078125,-0.015625,-0.03125,-0.015625,0.0078125,0.015625,-0.054688,-0.039063,0.03125,-0.0078125,0.0078125,0,0,-0.0078125,-0.015625,0.0078125,0.046875,-0.078125,-0.023438,-0.0078125,-0.039063,0.0078125,-0.023438,-0.039063,-0.023438,0,-0.023438,0,-0.023438,0.015625,0.015625,0.0078125,-0.023438,-0.015625,-0.039063,-0.039063,-0.0078125,-0.0078125,-0.0078125,0.015625,-0.046875,0,-0.023438,-0.0078125,-0.0078125,-0.0078125,0,-0.0078125,0,-0.03125,0,-0.023438,0,-0.023438,-0.023438,-0.03125,-0.046875,-0.0078125,0.023438,-0.015625,-0.0078125,-0.015625,-0.015625,0.015625,0.0078125,0.0078125,-0.015625,-0.023438,-0.039063,0.070313
-0.0078125,-0.039063,0,0.0078125,-0.03125,-0.023438,-0.015625,-0.015625,0.0078125,0,-0.023438,-0.039063,-0.023438,-0.015625,0.03125,-0.0078125,0.015625,-0.015625,-0.0078125,0,-0.015625,-0.015625,-0.0078125,0,-0.023438,-0.0078125,-0.0078125,-0.03125,0.015625,-0.015625,0,0,0,-0.0078125,-0.039063,0.0078125,-0.046875,-0.0078125,-0.0078125,-0.0078125,-0.0078125,0,-0.03125,-0.0078125,0,0,0.0078125,-0.0625,-0.015625,-0.03125,-0.015625,0,0,0.0078125,-0.070313,0,-0.023438,0.039063,-0.0078125,-0.0078125,-0.03125,-0.0078125,0.023438,-0.03125,0.015625,-0.0078125,0,0,0,0,-0.085938,-0.015625,0,-0.039063,0.015625,-0.023438,0,-0.039063,0.03125,0.0078125,0.015625,-0.03125,0.0078125,0,-0.039063,0.0078125,0.023438,-0.0078125,-0.039063,0,-0.0078125,0,-0.03125,0.0078125,0,0,0,-0.039063,-0.015625,-0.015625,0.0078125,0,-0.03125,0,-0.03125,-0.015625,-0.0078125,0,0,-0.015625,-0.0078125,-0.039063,-0.023438,-0.0078125,-0.0078125,-0.023438,-0.015625,0,0.0078125,-0.0078125,-0.0078125,-0.0078125,-0.0078125,0.015625,-0.0078125,-0.039063,-0.0078125,-0.03125,0.0078125,-0.0078125,-0.015625,-0.015625,-0.015625,-0.0078125,-0.0078125,0,0,-0.015625,-0.0078125,-0.015625,-0.0078125,0,-0.0078125,-0.015625,-0.023438,0.0078125,-0.023438,-0.015625,-0.0078125,-0.0078125
-0.023438,-0.0078125,0,-0.023438,0,-0.015625,-0.0078125,0,0.0078125,-0.015625,-0.015625,-0.046875,-0.023438,0,-0.0078125,0.0078125,-0.0078125,-0.015625,-0.0078125,-0.015625,-0.0078125,0,-0.0078125,0.0078125,-0.023438,0.015625,-0.0078125,-0.015625,-0.015625,0,0,-0.039063,0,0.0078125,-0.03125,-0.015625,0,-0.10156,0.023438,0.023438,0.015625,-0.0078125,0,-0.03125,-0.015625,0.0078125,0.0078125,0.0078125,-0.03125,-0.03125,-0.023438,-0.0078125,0,-0.046875,-0.0078125,-0.039063,-0.023438,0.015625,-0.015625,-0.046875,-0.023438,0.0078125,-0.015625,0.039063,-0.039063,-0.0078125,0.0078125,-0.03125,0,-0.015625,0.0078125,0.015625,-0.0078125,0.0078125,0.023438,-0.039063,0.0078125,-0.023438,-0.054688,0.0078125,0.015625,-0.0078125,-0.023438,-0.015625,0,-0.03125,-0.0078125,0.0078125,-0.015625,0.023438,-0.0078125,-0.023438,-0.03125,0.0078125,-0.0078125,0,-0.023438,-0.0078125,-0.0078125,-0.015625,0,-0.0078125,-0.03125,0.023438,-0.03125,-0.015625,-0.015625,-0.0078125,0.0078125,-0.023438,0.0078125,-0.015625,-0.015625,-0.015625,-0.023438,-0.015625,-0.0078125,-0.0078125,-0.015625,-0.0078125,0.0078125,0.0078125,-0.023438,-0.015625,-0.023438,0.0078125,0,-0.015625,-0.046875,-0.015625,-0.0078125,0.015625,0,0,-0.046875,-0.03125,-0.015625,-0.015625,0,0.0078125,-0.03125,-0.0078125,0,-0.023438,0,-0.015625,0,-0.0078125,0.0078125,0
-0.0078125,-0.015625,-0.023438,-0.0078125,0,-0.03125,-0.023438,-0.03125,-0.0078125,-0.0078125,0,-0.0078125,-0.015625,-0.015625,-0.015625,0.015625,-0.046875,-0.0078125,0,-0.0078125,0,-0.015625,-0.046875,0,-0.015625,-0.023438,-0.015625,-0.015625,-0.015625,-0.015625,-0.015625,-0.046875,0.015625,0.0078125,0.023438,-0.0078125,-0.03125,-0.0078125,-0.015625,-0.0078125,0.0078125,-0.023438,-0.015625,0,-0.023438,0.015625,-0.015625,-0.023438,-0.0078125,-0.015625,-0.015625,0,0,0.0078125,-0.023438,0.09375,-0.30469,-0.023438,0.039063,-0.054688,0.070313,0.023438,-0.046875,-0.015625,0.023438,-0.015625,0.0078125,-0.039063,0.054688,-0.085938,0.046875,0.039063,-0.046875,0.03125,-0.015625,-0.09375,0.09375,-0.015625,-0.039063,-0.015625,-0.015625,-0.015625,0,-0.046875,0,0,0,0,-0.023438,0,-0.0078125,-0.015625,0,0,-0.039063,0.039063,0.015625,-0.039063,0.015625,-0.0078125,0.015625,-0.015625,-0.023438,-0.023438,-0.03125,0,-0.03125,-0.023438,0,0.015625,-0.015625,-0.0078125,0.0078125,0.0078125,-0.0078125,-0.03125,-0.015625,-0.0078125,-0.0078125,0,-0.015625,-0.023438,0,-0.0078125,-0.023438,0,0,0,0.015625,-0.0078125,-0.03125,-0.0078125,-0.023438,-0.015625,-0.03125,-0.015625,0,-0.0078125,0.0078125,0,-0.023438,0.015625,0,-0.015625,-0.023438,-0.023438,0.0078125,0.0078125,-0.0078125,-0.015625
